Frame,Sub Frame,RF,BF,MG,LG,AT
1,0,0.00492096,0.00988007,0.161972,-0.0209808,0.0545883
1,1,0.00637054,0.0192642,0.0203323,0.0143814,0.0535202
1,2,0.00598907,0.0312424,0.0255203,0.0209045,0.0426865
1,3,0.00175476,0.018959,-0.152664,0.0334167,0.0271606
1,4,0.000991821,0.000762939,-0.0795364,0.000762939,0.0294495
2,0,0.000572205,0.00259399,-0.00434875,0.0112534,0.0391388
2,1,-0.000686646,0.00740051,0.00988007,0.0443268,0.0481796
2,2,3.81E-05,0.00434875,0.120735,0.094223,0.062027
2,3,-0.00190735,-0.00144958,0.026474,0.168152,0.0662994
2,4,-0.00320435,-0.0069809,0.00839233,0.0950241,0.0588608
3,0,-0.00354767,-0.00843048,0.0750732,-0.0453949,0.0628281
3,1,-0.000915527,-0.00862122,0.0600815,-0.102615,0.071907
3,2,0.00328064,0.00679016,0.0585556,0.0457764,0.0815964
3,3,0.00179291,0.00232697,0.102119,0.219078,0.0610352
3,4,0.00793457,-0.0187302,0.127296,0.141449,0.0488663
4,0,0.0069046,-0.0222778,0.0657654,0.102615,0.0510025
4,1,0.0100708,-3.81E-05,0.0956726,0.0978851,0.0595856
4,2,0.00667572,0.0435257,0.0703049,0.060463,0.053978
4,3,0.0030899,-0.000419617,0.0860977,0.029335,0.0457001
4,4,0.000343323,-0.0362396,0.206223,0.0424957,0.0429535
5,0,-0.000190735,-0.0278854,0.193481,0.0999451,0.0440979
5,1,-0.00392914,-0.0151062,0.205688,0.157928,0.0489044
5,2,-0.00236511,0.00419617,0.114021,0.0102234,0.0479889
5,3,0.000419617,-0.00301361,-0.0285721,-0.029335,0.0468445
5,4,0.00190735,-0.0242996,-0.0200653,0.0369263,0.0587082
6,0,0.00339508,-0.0123215,-0.258865,0.0606155,0.0756836
6,1,0.000572205,-0.000915527,-0.0310898,0.000724792,0.0850296
6,2,-0.00522614,0.0251389,0.092926,-0.0285721,0.08461
6,3,-0.00747681,0.0341415,-0.0583649,0.0724792,0.0794983
6,4,-0.00938416,0.0159454,-0.0564957,0.0276184,0.0701904
7,0,-0.0120544,-0.00236511,0.030899,-0.0156403,0.0498199
7,1,-0.00675201,-0.0154495,0.0413132,0.000610352,0.0498581
7,2,-0.00297546,-0.0224686,0.0582504,0.0113678,0.0478363
7,3,0.00209808,-0.0190353,0.0274658,0.0407791,0.0543594
7,4,-0.00209808,-0.0139999,0.209389,0.110092,0.0524521
8,0,-0.00217438,-0.00114441,0.352707,0.121651,0.0374603
8,1,-3.81E-05,0.0143433,0.0615692,0.11116,0.0308228
8,2,-0.000267029,0.0137329,-0.283203,0.0684357,0.0153351
8,3,-0.00312805,0.00671387,-0.0977325,0.0466156,0.0193405
8,4,-0.00461578,0.0102234,-0.0625992,-0.0253296,0.0403976
9,0,-0.00579834,0.00617981,-0.0897598,0.0117111,0.0646973
9,1,-0.00205994,0.00659943,0.0195694,0.0574875,0.0594711
9,2,0.000305176,0.00679016,0.0746155,0.0568771,0.0568771
9,3,0.00511169,0.00431061,0.0711823,0.0718307,0.0617599
9,4,0.00465393,0.00595093,0.0791168,0.0853729,0.0717163
10,0,0.00347137,0.0056839,0.0886154,0.0934982,0.0725937
10,1,0.0069046,0.00423431,0.0675583,0.0764847,0.0708771
10,2,0.0137329,0.00473022,0.0812149,0.0723267,0.0701523
10,3,0.0209808,0.0044632,0.100327,0.0714874,0.0603867
10,4,0.0150299,0.00354767,0.0980377,0.0727844,0.0470352
11,0,0.00144958,0.00240326,0.0960541,0.0808716,0.0515747
11,1,-0.00171661,0.00152588,0.0934982,0.0788879,0.0664139
11,2,-0.0122833,0.000267029,0.0949097,0.0469971,0.0675964
11,3,-0.0241089,0.000915527,0.0938034,0.0514603,0.0619507
11,4,-0.0291061,0.00152588,0.0867462,0.0785828,0.0517654
12,0,-0.0257492,-0.00347137,0.0891113,0.0735474,0.0526428
12,1,-0.0187302,-0.00354767,0.0725174,0.0510406,0.0572205
12,2,-0.00411987,0.000495911,0.0615311,0.0558853,0.0633621
12,3,0.00545502,0.00244141,0.0553894,0.0600052,0.0624466
12,4,0.0088501,0.0044632,0.0456619,0.0429916,0.0590515
13,0,0.0162888,0.00923157,0.0383377,0.0164032,0.0556564
13,1,0.0241852,0.00759125,0.0357819,0.0362015,0.0530243
13,2,0.0303268,0.00713348,0.0273514,0.0402069,0.0556183
13,3,0.0264359,0.00514984,0.0207901,0.0295258,0.0542068
13,4,0.0188446,0.00038147,0.0262833,0.035553,0.0526428
14,0,0.0190735,0.00366211,0.0266266,0.0393295,0.0527573
14,1,0.014534,3.81E-05,0.0270844,0.0462341,0.0518799
14,2,0.00629425,0.000457764,0.0201416,0.0473022,0.0545502
14,3,0.00289917,-0.00392914,0.0207138,0.0458145,0.0531769
14,4,0.00102997,-0.00595093,0.0209045,0.0480652,0.0530243
15,0,0.00133514,-0.00858307,0.0203323,0.050621,0.0505829
15,1,0.000762939,-0.00701904,0.022049,0.0498199,0.0512314
15,2,0.00087738,-0.00644684,0.0237656,0.0493622,0.0498581
15,3,0.00244141,-0.00614166,0.0281906,0.0502396,0.0469589
15,4,-7.63E-05,-0.00659943,0.0334549,0.0508118,0.0505066
16,0,0.00171661,-0.0056076,0.0363159,0.0518417,0.0517654
16,1,0.00465393,-0.00499725,0.040741,0.0505829,0.0509262
16,2,0.00843048,-0.00400543,0.0429535,0.0540924,0.0506973
16,3,0.0120926,-0.00236511,0.0447083,0.0531769,0.0498581
16,4,0.0110626,-0.00274658,0.049324,0.0531387,0.0535583
17,0,0.000839233,-0.00408173,0.0485611,0.0536346,0.0543976
17,1,-0.00484467,0,0.0468826,0.0574112,0.0543976
17,2,-0.0125504,-0.00102997,0.0473785,0.0595093,0.0552368
17,3,-0.0180817,-0.00320435,0.0450897,0.0580978,0.0553513
17,4,-0.0261307,0.000610352,0.0422287,0.060463,0.0576019
18,0,-0.0321198,0.00431061,0.0405502,0.062027,0.059433
18,1,-0.0416946,0.000724792,0.0470352,0.0612259,0.0603485
18,2,-0.047493,0.00312805,0.0478363,0.0593185,0.0584793
18,3,-0.0452805,0.00328064,0.0408936,0.058403,0.0587082
18,4,-0.0383759,0.00400543,0.0442886,0.054245,0.0577545
19,0,-0.0291824,0.00602722,0.0444794,0.0569153,0.0593567
19,1,-0.0195694,0.00476837,0.0491333,0.0557327,0.0618744
19,2,-0.00747681,0.0038147,0.0528717,0.0563812,0.0574493
19,3,-0.00125885,0.00293732,0.0537491,0.0532532,0.0608826
19,4,0.00679016,0.00202179,0.0542068,0.0542831,0.0582123
20,0,0.00957489,0.00339508,0.0518799,0.0568008,0.0567627
20,1,0.0162506,0.00343323,0.0466537,0.0556564,0.0576019
20,2,0.0214386,-0.00164032,0.0511169,0.055275,0.0543213
20,3,0.0269318,-0.0018692,0.0481033,0.0554657,0.0550079
20,4,0.026207,0.00171661,0.042038,0.0528336,0.0513458
21,0,0.028801,-0.000114441,0.0413513,0.054245,0.0583649
21,1,0.030632,-0.00217438,0.0405884,0.0514221,0.0514221
21,2,0.0328445,-0.00244141,0.0381088,0.0509644,0.0544357
21,3,0.0297165,-0.00400543,0.0413513,0.0497055,0.0634003
21,4,0.0237656,-0.00289917,0.0441742,0.0533295,0.0802994
22,0,0.0209808,-0.00232697,0.0468445,0.0535965,0.12207
22,1,0.0170898,-0.000152588,0.0442123,0.0548553,0.12104
22,2,0.0100708,0.000724792,0.046463,0.0562286,0.091629
22,3,0.00907898,-0.00312805,0.0452423,0.0534058,0.0584793
22,4,0.000572205,-0.0038147,0.0505066,0.0516129,0.0210571
23,0,-0.00102997,-0.00747681,0.0506592,0.0500488,0.0280762
23,1,-0.0056839,-0.0094986,0.0521469,0.0491714,0.0174332
23,2,-0.00408173,-0.00789642,0.055809,0.0535202,-0.0238037
23,3,-0.000839233,0,0.0621414,0.0537872,-0.0337219
23,4,-0.00305176,0.000991821,0.0626755,0.0580978,-0.0362015
24,0,-0.00598907,0.00301361,0.0596237,0.0574493,-0.0215912
24,1,-0.00614166,0.00247955,0.060463,0.0553894,0.00545502
24,2,-0.00476837,0.000801086,0.0623703,0.0582123,0.0416946
24,3,-0.00274658,0.000762939,0.0619125,0.0587463,0.0701904
24,4,-0.00564575,0.000190735,0.0607681,0.054245,0.0982285
25,0,-0.00743866,0.00167847,0.057869,0.051651,0.122643
25,1,-0.00362396,0.0030899,0.0528717,0.0488281,0.108528
25,2,-0.000686646,0.00297546,0.0499725,0.0496674,0.107841
25,3,-0.00629425,0.000343323,0.0489426,0.0477982,0.123253
25,4,-0.00301361,0.00175476,0.0466919,0.0520706,0.128326
26,0,-0.00846863,0.00118256,0.0687408,0.055275,0.104713
26,1,-0.0147629,0.00190735,0.136795,0.051651,0.0753784
26,2,-0.0256348,0.00312805,0.15419,0.0492859,0.0434875
26,3,-0.0287628,0.00209808,0.138702,0.0513458,0.0867844
26,4,-0.0304413,0.00324249,0.110741,0.0531387,0.13298
27,0,-0.0220871,0.00801086,0.0811386,0.0557327,0.111046
27,1,-0.0167084,0.00572205,0.0506592,0.0562286,0.054245
27,2,-0.00400543,-0.00125885,0.0240707,0.0559235,-0.0336838
27,3,0.00263214,-0.00190735,-0.00389099,0.0568771,-0.101662
27,4,0.00484467,-0.00156403,-0.0268173,0.0578308,-0.0314331
28,0,0.00682831,-0.00343323,-0.0435638,0.0601196,0.0106049
28,1,0.0149918,-0.00595093,-0.0479126,0.0577545,0.0391006
28,2,0.022583,-0.00587463,-0.0533676,0.0590515,0.025444
28,3,0.0268936,-0.00488281,-0.0499344,0.056572,0.022583
28,4,0.0330734,-0.00610352,-0.0473404,0.0531006,0.10376
29,0,0.0253677,-0.00671387,-0.0474548,0.0532913,0.115814
29,1,0.0236511,-0.00953674,-0.0389099,0.0486755,0.0935364
29,2,0.0212479,-0.00476837,-0.0301743,0.0491333,0.0558472
29,3,0.0225067,-0.00305176,-0.0138474,0.0486374,0.0350189
29,4,0.0218582,-0.00392914,-0.000648499,0.0497437,0.0483704
30,0,0.0146484,-0.00209808,0.0126648,0.0537109,0.0600815
30,1,0.00873566,0.00232697,0.026474,0.0533676,0.0682449
30,2,0.00228882,0.0038147,0.0392151,0.0524902,0.0785828
30,3,-0.00339508,0.00366211,0.0521088,0.0531006,0.0904846
30,4,-0.00488281,0.0043869,0.0621796,0.0500488,0.108452
31,0,-0.0101852,0.00530243,0.0679779,0.0518036,0.104828
31,1,-0.0168228,0.00492096,0.0799942,0.055275,0.0828934
31,2,-0.0161362,0.00579834,0.087738,0.0580215,0.0437164
31,3,-0.0143814,0.00583649,0.0899124,0.0574112,0.0419235
31,4,-0.0135803,0.00614166,0.0948334,0.0526428,0.0317383
32,0,-0.0153732,0.00663757,0.0909805,0.0507355,0.0154495
32,1,-0.0143433,0.00217438,0.094223,0.0479507,0.012207
32,2,-0.0135803,0.00225067,0.0992203,0.0505447,0.0139618
32,3,-0.013237,-0.000114441,0.0954437,0.0528717,0.018692
32,4,-0.0149536,-0.000534058,0.0990295,0.0491714,0.0038147
33,0,-0.0154495,3.81E-05,0.0976563,0.053215,0.00770569
33,1,-0.0175858,-0.000419617,0.0956726,0.0540543,0.0636292
33,2,-0.0203323,-0.000839233,0.0920486,0.0537872,0.0973511
33,3,-0.0138855,0.00141144,0.0857544,0.0513458,0.0937653
33,4,-0.0112915,0.0018692,0.0815964,0.0541687,0.0926971
34,0,-0.0130463,0.00106812,0.0751877,0.0499344,0.0902939
34,1,-0.00259399,0.00465393,0.0705338,0.052948,0.0830078
34,2,0.00286102,0.00835419,0.0662231,0.0570297,0.0799179
34,3,0.00804901,0.0101089,0.057869,0.055275,0.0775909
34,4,0.00377655,0.00999451,0.0489807,0.0542068,0.0448227
35,0,0.00926971,0.0104904,0.0389481,0.0562286,-0.00846863
35,1,0.00976563,0.00953674,0.0317001,0.0574493,-0.0385284
35,2,0.0131989,0.0106049,0.0255203,0.056076,-0.00511169
35,3,0.0129318,0.0127029,0.0242615,0.0549698,0.0348663
35,4,0.0135803,0.0123978,0.0266266,0.0568771,0.0652695
36,0,0.0138474,0.0109863,0.0244141,0.0538254,0.0863647
36,1,0.0165558,0.010376,0.0213623,0.0498199,0.103493
36,2,0.0175858,0.0108719,0.0152969,0.0494766,0.103569
36,3,0.0167847,0.00915527,0.0116348,0.0544357,0.10994
36,4,0.0102234,0.00587463,0.0194931,0.0580597,0.107994
37,0,0.00762939,0.0025177,0.0222778,0.0562286,0.0952911
37,1,0.00476837,0.00312805,0.0267792,0.0533295,0.0769043
37,2,0.00328064,-0.000457764,0.0305939,0.0544739,0.0626755
37,3,0.00518799,-0.000915527,0.0263214,0.0543594,0.0546265
37,4,0.00637054,-0.000724792,0.0275803,0.0535583,0.049324
38,0,0.0063324,-0.0056839,0.0255585,0.0577545,0.0774765
38,1,0.00774384,-0.00839233,0.0281906,0.056076,0.0774384
38,2,0.00305176,-0.00991821,0.037384,0.0520325,0.0636673
38,3,0.00652313,-0.0115967,0.0456619,0.0536728,0.065155
38,4,0.0118637,-0.0139236,0.0528717,0.0511932,0.00835419
39,0,0.00915527,-0.014534,0.0533676,0.0487518,-0.0391006
39,1,0.00583649,-0.0140381,0.0499725,0.047226,-0.00747681
39,2,0.00640869,-0.0157928,0.0502014,0.0477982,0.0025177
39,3,-0.000534058,-0.0209808,0.0579834,0.0484848,0.0407028
39,4,-0.00434875,-0.0152206,0.0514984,0.0521088,0.02388
40,0,-0.0044632,-0.0133133,0.0534439,0.057373,0.00495911
40,1,-0.0082016,-0.0153732,0.0555038,0.0594711,0.0314713
40,2,-0.0141525,-0.0129318,0.0581741,0.0579453,0.0432968
40,3,-0.0147247,-0.0117874,0.0573349,0.0569153,0.0296783
40,4,-0.0133896,-0.00972748,0.0570297,0.057869,0.0572968
41,0,-0.00408173,-0.00896454,0.0592041,0.0545883,0.0774002
41,1,0.0082016,-0.00831604,0.0601959,0.0534058,0.0891876
41,2,0.0168991,-0.00602722,0.0551224,0.0523758,0.125618
41,3,0.00415802,-0.00720978,0.0515747,0.0533676,0.16346
41,4,-0.0121307,-0.0018692,0.0491333,0.0501251,0.143013
42,0,-0.0247192,-0.001297,0.0521851,0.0509262,0.0984955
42,1,-0.0300217,-0.000152588,0.0489807,0.0556946,0.0208664
42,2,-0.0207901,0.000648499,0.0474167,0.0535965,0.0623322
42,3,-0.0102234,0.00297546,0.0499725,0.0506973,0.125847
42,4,-0.00919342,0.00354767,0.0460434,0.0536346,0.115509
43,0,-0.00946045,0.00465393,0.0439453,0.0576019,0.0865555
43,1,-0.00526428,0.0063324,0.0474167,0.054245,0.0452805
43,2,-0.010643,0.00564575,0.0495529,0.0582886,-0.0227737
43,3,-0.0133133,0.00865936,0.046196,0.0556946,-0.0300217
43,4,-0.00408173,0.0120544,0.0445557,0.0568771,-0.0291824
44,0,-0.00228882,0.0102997,0.0426483,0.0578308,-0.0782013
44,1,0.00282288,0.0123215,0.0388336,0.0574875,-0.0861359
44,2,0.0141144,0.0125504,0.0369644,0.0588608,-0.000991821
44,3,0.0208282,0.00705719,0.0417328,0.0486374,0.0484848
44,4,0.0183868,0.00576019,0.0423431,0.0504303,0.0971222
45,0,0.0169373,0.00701904,0.0386047,0.0450516,0.128021
45,1,0.0157166,0.00682831,0.03582,0.0477982,0.156326
45,2,0.0206375,0.00530243,0.0378799,0.0482559,0.158234
45,3,0.0123978,0.00144958,0.037384,0.04776,0.142059
45,4,0.00694275,0.00740051,0.037384,0.0514984,0.122452
46,0,0.00415802,0.00778198,0.031662,0.0514603,0.1194
46,1,-0.00213623,0.00255585,0.0324249,0.0516129,0.0801849
46,2,-0.00598907,0.00133514,0.0382996,0.0528717,0.020752
46,3,0.00392914,0.00350952,0.0427246,0.0523758,0.0107956
46,4,0.0131226,-0.000801086,0.0509644,0.0573349,0.0233078
47,0,0.0146484,-0.000915527,0.049324,0.0571823,0.0137711
47,1,0.00984192,-0.00392914,0.0514221,0.052681,0
47,2,0.00102997,-0.00347137,0.0505066,0.0494385,0.00518799
47,3,0.00110626,-0.00312805,0.0521469,0.0554276,0.0281143
47,4,0.0025177,-0.00686646,0.054512,0.0597,0.0418854
48,0,0.00366211,-0.00370026,0.0553131,0.0579834,0.0713348
48,1,0.0180435,-0.00728607,0.0530243,0.0555038,0.0792313
48,2,0.0127792,-0.00827789,0.0550842,0.0515366,0.0980377
48,3,-0.000457764,-0.00614166,0.0534058,0.0535965,0.0954819
48,4,-0.0277328,-0.000762939,0.0497818,0.0535202,0.104256
49,0,-0.0346375,-0.00118256,0.0503922,0.0503922,0.112915
49,1,-0.017128,-0.00240326,0.0476074,0.0524902,0.0751495
49,2,-0.00888824,-0.00293732,0.0484848,0.0495911,0.0402832
49,3,-0.000457764,-0.00156403,0.0456238,0.0476456,0.0224686
49,4,0.00282288,0.00244141,0.0456238,0.051651,0.00106812
50,0,0.00331879,0.00259399,0.0426102,0.050354,-0.016861
50,1,-0.0018692,0.00564575,0.0391769,0.0511551,0.00488281
50,2,-0.00347137,0.00579834,0.041275,0.0574112,0.0481796
50,3,0.00270844,0.00606537,0.0425339,0.05867,0.111961
50,4,0.00881195,0.00297546,0.0459671,0.0591278,0.084343
51,0,0.014534,-0.00087738,0.0445557,0.0569153,0.00816345
51,1,0.00751495,-0.00499725,0.0480652,0.0567627,0.0100327
51,2,-7.63E-05,-0.00514984,0.0485611,0.0568771,0.0196075
51,3,-0.00743866,-0.00431061,0.0489044,0.0609207,0.0388336
51,4,-0.00518799,-0.000839233,0.0458527,0.0584793,0.0613022
52,0,0.000572205,0.000114441,0.0410843,0.0557709,0.0225067
52,1,0.000267029,0.00087738,0.0427246,0.0497437,-0.0365067
52,2,0.00144958,0.0025177,0.0441742,0.049324,0.0415421
52,3,0.000724792,0.00804901,0.0443649,0.0512314,0.0792694
52,4,-0.00312805,0.0104904,0.0491714,0.0522232,0.0989914
53,0,-0.000762939,0.0133133,0.0495911,0.0585175,0.121536
53,1,-0.00225067,0.0204086,0.0506592,0.0554276,0.148773
53,2,-0.00335693,0.0113297,0.045433,0.0517654,0.136948
53,3,-0.00858307,0.00846863,0.0432205,0.0482178,0.131149
53,4,-0.00701904,0.00434875,0.0411224,0.0498581,0.115852
54,0,-0.0123978,-0.000648499,0.0429535,0.0502777,0.0963593
54,1,-0.0102234,-0.0107193,0.0390244,0.0497437,0.0597382
54,2,-0.0125885,-0.015831,0.0402451,0.0504303,0.0289917
54,3,-0.0164032,-0.0143051,0.0413895,0.0537872,0.0260544
54,4,-0.0113678,-0.0180435,0.0387573,0.0569916,0.0411224
55,0,-0.00919342,-0.0170517,0.0424194,0.0572968,0.0777435
55,1,-0.00724792,-0.0181198,0.046463,0.0532532,0.113792
55,2,-0.00263214,-0.0111008,0.045929,0.0564194,0.0879669
55,3,0.00259399,0.00144958,0.0476074,0.0582123,0.0187683
55,4,0.00946045,0.00881195,0.0507355,0.0593185,-0.0625229
56,0,0.0100327,0.0102997,0.054512,0.059433,-0.0503922
56,1,0.00930786,0.0105286,0.0556183,0.057106,-0.0605774
56,2,0.0106812,0.000648499,0.0538254,0.0539398,-0.00854492
56,3,0.0142288,-0.00656128,0.0524521,0.0546646,-0.0202942
56,4,0.0175095,-0.00797272,0.051918,0.0555801,0.0505447
57,0,0.0185776,-0.00682831,0.0510406,0.052681,0.0627899
57,1,0.0163651,-0.00823975,0.0473785,0.0522232,0.0423431
57,2,0.018425,3.81E-05,0.0448608,0.0530243,0.0508499
57,3,0.0115967,0.00961304,0.0447083,0.0522995,0.0828171
57,4,0.0050354,0.0121689,0.0419998,0.0508881,0.113907
58,0,0.00259399,0.0172043,0.0476456,0.0552368,0.124435
58,1,-0.00427246,0.0123596,0.0498581,0.0521088,0.117264
58,2,-0.00843048,0.0170898,0.0502014,0.0520325,0.100784
58,3,-0.00938416,0.0191498,0.052948,0.051651,0.0884247
58,4,-0.0088501,0.0164032,0.0540543,0.0515366,0.0804901
59,0,-0.00564575,0.0244904,0.0526047,0.0490952,0.0732422
59,1,-0.00583649,0.0313187,0.0488663,0.0444794,0.0670624
59,2,-0.00705719,0.0395584,0.043869,0.0512695,0.0653839
59,3,-0.0108719,0.027504,0.0375366,0.0531387,0.0617599
59,4,-0.0101089,0.0189209,0.0348282,0.0518036,0.0571442
60,0,-0.0111389,0.00125885,0.0336456,0.052948,0.0527954
60,1,-0.00957489,-0.0136566,0.0326538,0.0491714,0.051651
60,2,-0.00976563,-0.00766754,0.0340652,0.0509262,0.0527191
60,3,-0.00663757,-0.00492096,0.0367355,0.0498581,0.0468826
60,4,-0.00659943,-0.0177765,0.0357056,0.0555038,0.0419617
61,0,-0.0124359,-0.0154114,0.0323868,0.0565338,0.0469208
61,1,-0.0119781,-0.0217819,0.0340271,0.0582504,0.0618744
61,2,-0.0173569,-0.0252533,0.0349808,0.0566864,0.0662994
61,3,-0.019722,-0.0255585,0.0371552,0.0527191,0.0644302
61,4,-0.0134659,-0.0246429,0.0384903,0.0540161,0.0642395
62,0,-0.0109482,-0.0181961,0.0454712,0.055275,0.0697708
62,1,-0.0082016,-0.00926971,0.0461578,0.0543594,0.0641251
62,2,-0.00709534,0.000190735,0.0505066,0.0558472,0.0236511
62,3,-0.000457764,-0.00541687,0.0560379,0.0574112,-0.00766754
62,4,0.00770569,-0.00278473,0.0574112,0.0582123,0.00190735
63,0,0.017128,-0.00686646,0.0546646,0.0574875,0.0248337
63,1,0.026741,-0.0195313,0.0553894,0.0518799,0.0380325
63,2,0.0434113,-0.018692,0.0579453,0.051918,0.0400162
63,3,0.0535202,-0.0199509,0.057373,0.0536346,0.0339508
63,4,0.055809,-0.0190735,0.0589752,0.0553131,0.0416565
64,0,0.0484848,-0.0150681,0.0522232,0.0550842,0.0569916
64,1,0.0455856,-0.00823975,0.0505066,0.0542068,0.0633621
64,2,0.0395966,-0.00873566,0.0423813,0.0530624,0.064888
64,3,0.0349426,-0.00629425,0.0375748,0.0522232,0.0661087
64,4,0.0275803,-0.00133514,0.0326538,0.0455856,0.0628662
65,0,0.020256,0.000648499,0.0327682,0.0482178,0.0736618
65,1,0.0154495,0.00202179,0.0424957,0.0545502,0.094986
65,2,0.00495911,0.00457764,0.0484085,0.0600052,0.0969696
65,3,0.00221252,0.00267029,0.0465012,0.0555038,0.0806427
65,4,-0.00968933,-0.000610352,0.0452423,0.0511932,0.055809
66,0,-0.00888824,0.00488281,0.0427246,0.0495148,0.0701523
66,1,-0.00614166,0.0136948,0.043602,0.0539017,0.0894547
66,2,0.000228882,0.0218582,0.04673,0.054245,0.0822449
66,3,-0.000839233,0.026207,0.0477982,0.0533295,0.0954437
66,4,-0.00221252,0.0249481,0.0502396,0.0540161,0.0839996
67,0,-0.00614166,0.018425,0.0531387,0.0573349,0.0445175
67,1,-0.013504,0.0152206,0.0478745,0.0549316,0.0117874
67,2,-0.0226212,0.00972748,0.0475311,0.0488281,-0.0406647
67,3,-0.0315094,0.00408173,0.043869,0.053215,-0.0898361
67,4,-0.0404739,0.00133514,0.0466537,0.0523758,-0.0439453
68,0,-0.0415421,-0.00232697,0.052681,0.0559235,0.0710297
68,1,-0.0404358,-0.00232697,0.0499725,0.0572205,0.0819397
68,2,-0.0391388,-0.00541687,0.0442886,0.0557709,0.0722504
68,3,-0.0356293,-0.00087738,0.044899,0.056839,0.0849152
68,4,-0.032196,-0.00171661,0.045929,0.058403,0.0762177
69,0,-0.0286484,0.00331879,0.0470734,0.0582123,0.0810623
69,1,-0.0260925,0.00286102,0.0445175,0.0524902,0.129547
69,2,-0.0238037,0.00514984,0.0446701,0.0507736,0.140724
69,3,-0.0197983,0.00419617,0.0487137,0.050087,0.121841
69,4,-0.01194,-0.000953674,0.0487137,0.0538254,0.0566101
70,0,-0.00701904,-0.00133514,0.0458145,0.057106,0.080986
70,1,-0.00297546,-0.00720978,0.0466537,0.056839,0.0688934
70,2,0.00244141,-0.00591278,0.0498962,0.0467682,0.0362015
70,3,0.00282288,-0.00179291,0.0459671,0.0432587,0.00759125
70,4,0.001297,-0.00110626,0.0476074,0.0437927,-0.0105667
71,0,0.0106049,-0.00328064,0.0466919,0.0483704,0.0476456
71,1,0.0169754,-0.000648499,0.0485229,0.0490189,0.0702667
71,2,0.0266266,0.00640869,0.0487518,0.0516891,0.0706863
71,3,0.0284576,0.00770569,0.04776,0.0550842,0.073967
71,4,0.0253677,0.00762939,0.0408936,0.0521469,0.0762558
72,0,0.0209427,0.0030899,0.0382996,0.0541687,0.0616074
72,1,0.0161362,-0.000572205,0.0398636,0.0591278,0.0259399
72,2,0.0131607,-0.00598907,0.0432968,0.064888,0.0311279
72,3,0.00904083,-0.00934601,0.0451279,0.0622177,0.0323486
72,4,0.0102615,-0.00846863,0.0440216,0.0617599,0.019722
73,0,0.00659943,-0.00835419,0.0386429,0.0614929,0.00038147
73,1,0.00148773,-0.0031662,0.0352859,0.0584793,0.0623322
73,2,0.00267029,-0.00106812,0.0344086,0.0535202,0.114861
73,3,0.00667572,-0.00179291,0.0348282,0.0541306,0.131226
73,4,0.00751495,0.000915527,0.0376129,0.0570297,0.103722
74,0,0.0108719,0.00617981,0.0419235,0.0524521,0.0185013
74,1,0.0114059,0.00720978,0.0449371,0.0502396,-0.0210571
74,2,0.0131989,0.0109482,0.0501251,0.0542831,-0.00984192
74,3,0.0200653,0.00823975,0.0577164,0.0601959,0.0627899
74,4,0.0272751,0.00473022,0.0611877,0.0588989,0.0460815
75,0,0.0296783,0.00282288,0.0580597,0.0498962,0.0292206
75,1,0.0292587,0.000305176,0.0548935,0.0505447,0.0409317
75,2,0.0304031,-0.00659943,0.0460815,0.0455856,0.063858
75,3,0.0318527,-0.00709534,0.0511551,0.0524521,0.0659561
75,4,0.0316238,-0.00751495,0.051384,0.052681,0.0577545
76,0,0.0259018,-0.00476837,0.0481796,0.0471497,0.0275421
76,1,0.0144577,0.00263214,0.0456619,0.0510025,0.00537872
76,2,0.00869751,0.00240326,0.0481033,0.0527191,0.0650787
76,3,0.00137329,0.00247955,0.0432587,0.0501251,0.107574
76,4,-0.00972748,0.000305176,0.046196,0.0492859,0.107536
77,0,-0.0210953,0.00167847,0.0433731,0.0477982,0.0965118
77,1,-0.0341034,0.0075531,0.0436783,0.051918,0.100212
77,2,-0.0469971,0.00522614,0.0417709,0.0517654,0.0989151
77,3,-0.0544739,-0.000991821,0.0416183,0.0492859,0.0892258
77,4,-0.0519562,0.00537872,0.0466156,0.0508118,0.0826645
78,0,-0.0502014,0.00370026,0.0444031,0.050087,0.0666428
78,1,-0.0495911,0.00209808,0.0461197,0.0518036,0.0669479
78,2,-0.0284195,-0.00354767,0.0467682,0.0569153,0.0722504
78,3,-0.0125122,-0.0075531,0.0424194,0.0562668,0.0788879
78,4,-0.0100327,-0.00442505,0.0395966,0.0564957,0.0788498
79,0,-0.0337982,-0.00247955,0.0369263,0.0567245,0.0911713
79,1,-0.0691223,3.81E-05,0.0383377,0.0550842,0.082016
79,2,-0.0832748,0.00499725,0.0426483,0.055542,0.0594711
79,3,-0.0673294,0.00389099,0.0415421,0.0550079,0.0152588
79,4,-0.0146103,-0.0044632,0.045166,0.0550079,-0.0598526
80,0,0.0278091,-0.0120163,0.0437164,0.0569534,-0.101395
80,1,0.0553894,-0.00907898,0.0498199,0.0532913,-0.0413513
80,2,0.0667953,-0.00370026,0.0527954,0.0578308,0.0480652
80,3,0.0550461,-0.00362396,0.0533676,0.057373,0.0786972
80,4,0.0440216,-0.00862122,0.0479507,0.0555801,0.0849915
81,0,0.0392914,-0.00759125,0.0445557,0.0544739,0.0717926
81,1,0.0319672,0.00232697,0.046463,0.0566101,0.0396729
81,2,0.0186539,0.011673,0.0405502,0.054512,-0.0107574
81,3,0.0139236,0.0176239,0.044899,0.0553513,-0.0328827
81,4,0.010376,0.0333023,0.0509262,0.0556946,0.0436401
82,0,0.00812531,0.0307083,0.0510406,0.0543594,0.0807571
82,1,0.00831604,0.0191498,0.0522232,0.0535965,0.0888443
82,2,0.0114059,0.00259399,0.047493,0.049057,0.101433
82,3,0.00930786,-0.00846863,0.0468063,0.0493622,0.0964355
82,4,0.0105667,-0.0138474,0.0418854,0.0509644,0.0927734
83,0,0.0115967,-0.0132751,0.0402451,0.047226,0.0945282
83,1,0.0141144,-0.00545502,0.0415039,0.0450516,0.0980377
83,2,0.0108719,0.00541687,0.043335,0.0545883,0.0972366
83,3,0.0069809,0.00701904,0.0416946,0.0553131,0.0756454
83,4,0.00682831,-0.00289917,0.0432205,0.0571823,0.0573349
84,0,0.00225067,-0.0139618,0.0411606,0.0567627,0.0537491
84,1,0.00339508,-0.0128174,0.0398636,0.0531387,0.0596237
84,2,0.00572205,-0.00888824,0.0405121,0.0526047,0.0618744
84,3,0.00236511,-0.00492096,0.0439835,0.0515747,0.0639343
84,4,0.0018692,-0.00259399,0.0460052,0.0510788,0.0579071
85,0,0.0030899,-0.0105667,0.0458908,0.0526428,0.0609207
85,1,0.00167847,-0.0101852,0.0482941,0.0556564,0.0598145
85,2,-0.00164032,-0.00675201,0.0512314,0.0553513,0.0559235
85,3,-0.00457764,-0.00743866,0.0502396,0.0520706,0.0524902
85,4,-0.00492096,-0.00934601,0.050354,0.0527954,0.0489044
86,0,-0.00595093,-0.00293732,0.0454712,0.0528336,0.0505829
86,1,-0.00816345,0.0043869,0.0492477,0.0542068,0.0490189
86,2,-0.0122833,0.00831604,0.0534439,0.0521088,0.0415039
86,3,-0.011673,0.0131226,0.053978,0.0544357,0.0424957
86,4,-0.00873566,0.017662,0.0541306,0.055542,0.0421524
87,0,-0.0124359,0.0123215,0.0518417,0.0556564,0.0397491
87,1,-0.010643,0.00579834,0.0524902,0.0565338,0.041008
87,2,-0.00667572,0.00576019,0.0443268,0.0512695,0.0501633
87,3,-0.00175476,-0.019455,0.047226,0.0541306,0.0434875
87,4,-0.00682831,-0.0261688,0.0494766,0.0558472,0.0221634
88,0,-0.00785828,0.00106812,0.0503159,0.0568008,0.0315094
88,1,-0.00530243,0.00213623,0.0470734,0.0561905,0.0480652
88,2,-0.00530243,0.00343323,0.0426102,0.0547409,0.0601959
88,3,-0.00217438,0.00751495,0.0376511,0.0538254,0.0723648
88,4,0.00270844,0.0165558,0.0439072,0.0534821,0.0722122
89,0,0.000343323,0.0056839,0.0424194,0.0496292,0.0931168
89,1,0.00160217,-0.00644684,0.0455856,0.0491714,0.126114
89,2,0.00576019,-0.00892639,0.0411987,0.0516891,0.142517
89,3,0.000495911,-0.00518799,0.0416565,0.0544739,0.0660706
89,4,0.00152588,-0.0298309,0.0400162,0.0653458,-0.0636673
90,0,0.00263214,-0.0358963,0.0400543,0.0695038,-0.0524139
90,1,0.00637054,0.00846863,0.0440216,0.0679398,-0.00801086
90,2,0.00526428,0.0664139,0.0458527,0.0467682,0.0362396
90,3,0.00453949,0.0819016,0.0424957,0.0240326,0.0589752
90,4,0.00171661,0.0690079,0.0398254,0.0488281,0.0770187
91,0,0.00282288,0.0204468,0.0379181,0.0547028,0.0924683
91,1,0.00312805,-0.0327682,0.039978,0.0474548,0.09758
91,2,0.00110626,-0.0396347,0.058136,0.0456619,0.0973511
91,3,-0.00164032,-0.0116348,0.0798035,0.0495529,0.0857925
91,4,0.00144958,-0.00980377,0.0640106,0.0523758,0.0748825
92,0,-0.00118256,-0.0188065,0.026474,0.0566864,0.0612259
92,1,-0.000534058,-0.0204086,-0.00579834,0.0585175,0.0596619
92,2,-0.0025177,-0.0378036,0.00999451,0.0635529,0.0556946
92,3,-0.00259399,-0.0223923,0.0270844,0.0572205,0.0755692
92,4,-0.0012207,0.00286102,0.0335693,0.0563431,0.0686646
93,0,0.00110626,0.0112152,0.0545883,0.0473022,0.0514984
93,1,0.00396729,0.00556946,0.0713348,0.0667191,0.0204086
93,2,0.00679016,-0.00118256,0.0633621,0.0696182,0.0345993
93,3,0.00663757,-0.00556946,0.0627518,0.0773621,0.0394821
93,4,0.00278473,-0.00919342,0.0645828,0.0684357,0.0158691
94,0,0.00507355,-0.000190735,0.0663757,0.0501633,0.0945663
94,1,0.00507355,0.00553131,0.0842285,0.0457001,0.0963593
94,2,0.0025177,-0.0177002,0.0775146,0.0217438,0.0564575
94,3,0.00141144,-0.0285339,0.0391006,0.0349426,0.0325012
94,4,-0.00427246,-0.0369263,0.00442505,0.0469589,0.00595093
95,0,-0.00419617,-0.0322342,-0.0261688,0.0514984,-0.0222778
95,1,-0.00202179,0.00656128,0.0213623,0.0750732,0.0302505
95,2,-0.00209808,0.0502396,0.0582123,0.0825119,0.0750732
95,3,-0.00587463,0.0392532,0.0455475,0.066452,0.0921631
95,4,-0.00591278,0.0277328,0.0893402,0.00419617,0.0891113
96,0,-0.00209808,-0.00591278,0.105629,-0.0100708,0.0726318
96,1,-0.00198364,-0.0295639,0.0972366,0.0270844,0.0554657
96,2,-0.00549316,-0.020256,0.129738,0.0445557,0.0197601
96,3,-0.00198364,0.00225067,0.0589371,0.0605774,0.0147629
96,4,0.00106812,0.0308609,-0.00988007,0.0907898,0.0220871
97,0,-0.0019455,0.0655746,-0.0891876,0.0770187,0.0759506
97,1,-0.00377655,0.080986,-0.00331879,0.0432587,0.120735
97,2,-0.00274658,0.0733948,0.0238037,0.0193024,0.142708
97,3,0.000648499,0.0539017,0.0112915,0.020752,0.16201
97,4,0.00141144,0.0315857,-0.0164795,0.0824738,0.173683
98,0,0.00396729,-0.00137329,0.02491,0.112076,0.106087
98,1,0.00293732,-0.0392914,0.0911713,0.101738,0.0613022
98,2,0.00808716,-0.0483322,0.0689697,0.0686646,-0.0846863
98,3,0.00427246,-0.0370407,0.0677872,0.0592804,-0.168457
98,4,0.00621796,-0.0252151,0.0694656,0.0600433,-0.0124741
99,0,0.00320435,-0.0444412,0.0482941,0.0533295,0.0932693
99,1,0.00331879,-0.0504684,0.0589371,0.0508118,0.10952
99,2,0.000152588,-0.0303268,0.0640488,0.04776,0.103531
99,3,-0.000762939,-0.0148773,0.0822449,0.0457001,0.0555801
99,4,0.00328064,0.00999451,0.105705,0.0492096,0.00244141
100,0,0.0043869,-0.00610352,0.0905228,0.0502396,0.00038147
100,1,-0.0018692,-0.0834274,0.0881958,0.0632858,-0.0257874
100,2,-0.00537872,-0.0829697,0.128822,0.0720978,0.0518036
100,3,-0.00392914,-0.0437927,0.0605392,0.067482,0.131378
100,4,-0.000991821,-0.0249863,0.0151062,0.0605011,0.161934
101,0,0.000801086,0.0258636,-0.0485229,0.0322723,0.147133
101,1,0.00160217,0.099144,-0.136414,0.0216675,0.122719
101,2,-0.00183105,0.0846863,-0.103455,0.0128555,0.120163
101,3,-0.00141144,0.0547028,-0.0571442,0.0135422,0.0891113
101,4,-0.000762939,0.0684357,0.0295258,0.0254059,-0.0286484
102,0,0.00331879,0.0304794,0.145988,0.00919342,-0.0969696
102,1,0.00114441,-0.0401688,0.175476,-0.00545502,-0.0801086
102,2,0.0037384,-0.0552368,0.0440598,0.00728607,-0.0882721
102,3,0.00125885,-0.00637054,0.0198746,0.0814819,0.0247574
102,4,0.00400543,0.0361633,0.0424194,0.162315,0.0667572
103,0,0.00583649,0.0182343,0.0813293,0.145683,0.0826263
103,1,0.00511169,-0.0761795,0.0725937,0.0919342,0.0851822
103,2,-0.000228882,-0.0958633,0.0592041,0.0570679,0.0797272
103,3,-0.00358582,-0.0697327,0.0616455,0.0401306,0.0977325
103,4,-0.00495911,-0.0464249,0.0841522,0.0566864,0.104027
104,0,-0.00476837,-0.00217438,0.0865936,0.0490189,0.107231
104,1,-0.00350952,0.0614929,0.0865555,0.0481796,0.111771
104,2,-0.00328064,0.0883102,0.0796509,0.0506973,0.104485
104,3,-0.00419617,0.0627899,0.0988007,0.0534821,0.11158
104,4,-0.00583649,0.0732422,0.127831,0.0884628,0.113754
105,0,-0.000305176,0.117569,0.186958,0.116425,0.116577
105,1,0.00190735,0.134354,0.204811,0.110016,0.0951385
105,2,0.00152588,0.0447464,0.139351,0.0443649,0.0505447
105,3,0.00377655,-0.0556564,-0.0809097,0.00835419,0.0356293
105,4,-0.00205994,-0.0789642,-0.294685,-0.00957489,0.0588608
106,0,0.00221252,-0.0721359,-0.289536,0.0147629,0.0501251
106,1,0.00339508,-0.0413895,-0.091629,0.0577545,0.0757599
106,2,0.00293732,-0.0316238,0.10582,0.0545883,0.0836945
106,3,0.00328064,-0.0514221,0.0534058,0.0414658,0.00217438
106,4,0.00427246,-0.0489044,0.0590134,0.0303268,0.000915527
107,0,0.00167847,-0.0135803,0.106354,0.0399399,-0.0753021
107,1,0.00255585,0.00331879,0.145264,0.0464249,-0.0995255
107,2,0.00320435,0.0147247,0.13279,0.0315475,-0.0109482
107,3,0.00209808,0.0242996,0.0905228,0.0354767,0.127716
107,4,0.00171661,0.0107574,0.00843048,0.058403,0.199699
108,0,-0.000495911,-0.00991821,-0.0178909,0.0682831,0.0931168
108,1,0.00270844,-0.00659943,-0.0069046,0.0709915,0.0130844
108,2,0.00228882,-0.00450134,-0.00415802,0.064621,0.0201797
108,3,0.000114441,-0.0103378,0.0481415,0.0357056,0.0147629
108,4,0.00190735,0.00244141,0.0688171,0.0426865,-0.0143814
109,0,0.00087738,0.00205994,0.0762939,0.0699615,-0.0271225
109,1,0.00331879,-0.00980377,0.0793076,0.0683212,0.0233841
109,2,0.00640869,-0.00328064,0.0765991,0.0403976,0.043335
109,3,0.0112152,0.0173187,0.0670624,0.041008,0.0117874
109,4,0.00724792,0.0125885,0.0888062,0.0634766,-0.0888824
110,0,0.00179291,-0.000114441,0.0741577,0.0886917,-0.0817108
110,1,0.00282288,-0.00621796,0.0646973,0.112991,-0.0173569
110,2,0.0056076,0.00774384,0.0597,0.0715637,0.122299
110,3,0.00217438,0.0395203,0.0566483,0.047226,0.17395
110,4,0.000648499,0.0397873,0.0492859,0.0229645,0.163994
111,0,-0.00240326,0.0363922,0.0497818,0.0109863,0.148239
111,1,-0.00278473,0.0290298,0.0428391,0.0220108,0.175972
111,2,-0.00720978,0.0194168,0.0500488,0.044632,0.231819
111,3,-0.00923157,0.0210571,0.0601196,0.0562286,0.240631
111,4,-0.0121307,0.0201035,0.0436401,0.0683975,0.147972
112,0,-0.017128,0.00179291,-0.00518799,0.0590515,0.0555801
112,1,-0.0139618,-0.0131226,-0.0185776,0.0595856,0.0262833
112,2,-0.0124741,-0.0194168,-0.0147247,0.0791931,0.0541687
112,3,-0.01194,-0.0256729,-0.0194168,0.0714111,0.067482
112,4,-0.0121307,-0.028801,0.0222015,0.07164,0.0677872
113,0,-0.0120163,-0.0310135,0.0386047,0.0938797,0.0639725
113,1,-0.00637054,-0.0332642,0.0178528,0.0843811,0.056076
113,2,-0.0056076,-0.0296402,0.051918,0.0682068,0.0493622
113,3,-0.00495911,-0.0364685,0.0897217,0.0338364,0.0330353
113,4,0.0025177,-0.0335312,0.0548553,-0.00663757,0.0217438
114,0,0.0119781,-0.013237,0.0637054,0.0374222,0.0263214
114,1,0.0196457,0.00530243,0.00797272,0.0583649,0.0217819
114,2,0.0139999,0.0117111,0.0208282,0.0337982,0.0134277
114,3,0.00984192,-0.00320435,0.0121689,0.0225449,0.0107574
114,4,0.0121307,-0.0119019,0.0285721,0.0299072,0.0150681
115,0,0.0117874,-0.00331879,0.063591,0.0530243,0.0198364
115,1,0.0087738,0.00202179,0.0660324,0.106239,0.0199509
115,2,0.00209808,-0.00205994,0.0777435,0.0943756,0.0244522
115,3,-0.00358582,0.000343323,0.112648,0.0495148,0.028038
115,4,-0.00377655,0.00335693,0.0569534,0.107841,0.0299072
116,0,-0.00816345,0.00415802,0.0458908,0.0641632,0.0345612
116,1,-0.00621796,0.00537872,0.0568008,0.0144196,0.0356293
116,2,0.00282288,0.00476837,0.0391388,0.0316238,0.0443649
116,3,0.0114822,0.00385284,-0.0140381,-0.0396347,0.0449753
116,4,0.0116348,-0.00190735,0.0819016,-0.0270844,0.0540543
117,0,0.0149536,-0.00293732,0.169449,0.0598526,0.0572968
117,1,0.00965118,-0.00183105,0.0507355,0.0136566,0.0692368
117,2,0.0132751,0.00217438,-0.0170135,-0.0278473,0.0733566
117,3,0.0239182,0.00816345,-0.0689697,0.0291443,0.0749207
117,4,0.021553,0.00427246,-0.0185776,0.118866,0.0676346
118,0,0.00915527,0.00255585,0.0793457,0.178528,0.057373
118,1,-0.0105667,0.00038147,0.144348,0.175858,0.0637436
118,2,-0.0122452,0.00743866,0.114021,0.0957489,0.069809
118,3,-0.00797272,0.0123978,0.0355911,-0.0101852,0.0682831
118,4,0.00389099,0.0238419,-0.0283432,-0.00553131,0.0576782
119,0,0.0104523,0.0235748,0.0127029,0.016861,0.058136
119,1,-0.00278473,0.0117493,0.130577,0.0281525,0.0570297
119,2,-0.0206757,0.00198364,0.147018,0.0843048,0.0624847
119,3,-0.035553,-0.00450134,0.174484,0.063324,0.0679779
119,4,-0.042038,-0.00610352,0.0853348,0.0787354,0.0690079
120,0,-0.0269699,0.00118256,-0.115089,0.125809,0.0740814
120,1,-0.0153732,0.00183105,-0.0803757,0.146446,0.0794983
120,2,-0.00862122,3.81E-05,-0.0244522,0.14534,0.0816345
120,3,-0.0103378,-0.00423431,0.114136,0.0386047,0.0772095
120,4,-0.00396729,-0.00263214,0.175056,-0.01297,0.0477982
121,0,0.00328064,-0.000534058,0.1054,-0.109749,0.0292969
121,1,0.0069809,0.00400543,-0.118141,-0.0736618,0.0387192
121,2,0.0153732,0.00156403,-0.0786591,0.0355148,0.0411606
121,3,0.0295639,0.00556946,0.0247192,0.0873184,0.0507355
121,4,0.0322723,0.0128555,0.0352097,0.123062,0.0533295
122,0,0.025177,0.00831604,-0.0325012,0.115433,0.0476837
122,1,0.00343323,0.000114441,-0.122871,0.0535965,0.0402069
122,2,-0.0174713,-0.00549316,-0.0947189,-0.00762939,0.0357056
122,3,-0.02491,-0.00488281,0.0485229,0.0429535,0.0555801
122,4,-0.00461578,-0.00148773,0.098381,0.130081,0.0590897
123,0,0.0436401,0.00289917,0.189438,0.142136,0.0598145
123,1,0.0519943,0.00400543,0.184898,0.117874,0.0704956
123,2,0.0276184,-0.000114441,0.0829697,0.049057,0.077095
123,3,-0.00190735,-0.00640869,0.0992203,0.00232697,0.0754929
123,4,-0.0197601,-0.00377655,0.146866,-0.0170898,0.0716019
124,0,-0.0214386,-0.000343323,0.234718,0.0218582,0.0656128
124,1,-0.00125885,0.00480652,0.199471,0.114937,0.0566483
124,2,0.0156784,0.0038147,0.108566,0.119057,0.0471115
124,3,0.00141144,0.00648499,0.0230789,0.0854492,0.0372314
124,4,-0.0249481,-0.00709534,0.00244141,0.0551224,0.0404739
125,0,-0.0425339,-0.021286,0.108795,-0.059433,0.0529861
125,1,-0.0466919,-0.0221634,0.151482,-0.00835419,0.0698853
125,2,-0.025177,-0.01297,0.122337,0.0802994,0.0706482
125,3,0.00614166,0.00087738,0.0585556,0.104027,0.0679779
125,4,0.0227737,0.0120163,-0.0106812,0.044632,0.0629044
126,0,0.0328827,0.0174713,-0.00106812,-0.00343323,0.0575638
126,1,0.0114441,0.0138092,0.0105667,-0.0149155,0.0625992
126,2,-0.0164795,0.00476837,-0.00362396,0.0347137,0.0553894
126,3,-0.0432205,-0.00499725,0.0918961,0.099144,0.0482559
126,4,-0.0541306,-0.00858307,0.0512695,0.0905228,0.0458527
127,0,-0.0402832,-0.0121307,-0.0566864,0.0643921,0.0550842
127,1,-0.00762939,-0.00850677,-0.000457764,0.136604,0.0532913
127,2,0.0164032,-0.00225067,-0.0804138,0.0881958,0.0411224
127,3,0.0195313,-0.00267029,-0.0848007,-0.0936508,0.0388336
127,4,0.0018692,-0.0101089,0.0288773,-0.000839233,0.0418091
128,0,-0.0122452,-0.0141907,0.0582123,0.16407,0.051384
128,1,-0.0156403,-0.00862122,-0.141869,0.128059,0.0447464
128,2,-0.00404358,-0.00408173,-0.162468,0.000457764,0.0247955
128,3,0.0130463,0.00392914,-0.021553,0.00110626,0.045433
128,4,0.0369263,0.00534058,0.0606537,0.0563049,0.0581741
129,0,0.0479507,0.00888824,0.0604248,0.0818253,0.0605392
129,1,0.056839,0.0130081,-0.143433,0.0104904,0.0603867
129,2,0.0568008,0.0063324,-0.070076,-0.10704,0.0666046
129,3,0.0532532,0.00694275,-0.00602722,-0.12188,0.0533676
129,4,0.049057,0.00709534,0.0625229,0.0789642,0.0585938
130,0,0.0551987,0.00537872,0.141983,0.269547,0.0629425
130,1,0.0386047,0.00705719,0.0413132,0.14698,0.0325012
130,2,0.0236893,0.00957489,0.133553,0.0403595,0.0259781
130,3,-0.0126266,0.00328064,0.102005,0.0222778,0.0427246
130,4,-0.0292587,-0.00499725,0.0921631,-0.0546646,0.0571442
131,0,-0.030365,-0.00892639,0.168114,-0.0373077,0.0706482
131,1,-0.0290298,-0.0127411,0.208015,0.0183487,0.0652313
131,2,-0.0503922,-0.0173187,0.186386,0.169296,0.0653458
131,3,-0.0616074,-0.0136566,0.159798,0.12001,0.0732803
131,4,-0.0369644,-0.00545502,0.12661,0.135002,0.0851059
132,0,-0.00164032,0.000610352,0.0260544,0.107803,0.0802231
132,1,-7.63E-05,0.00431061,0.0667953,0.131607,0.0725174
132,2,0.00797272,0.0069046,0.0934982,0.156441,0.0628662
132,3,0.0501633,0.0123215,0.00858307,0.0881195,0.0628281
132,4,0.0257492,0.00652313,0.120239,0.0586319,0.0581741
133,0,-0.0255203,-0.00530243,0.080986,0.0850677,0.0476837
133,1,-0.066185,-0.00999451,0.0260544,0.0629807,0.0582886
133,2,-0.0510025,-0.0115204,0.0868988,0.01297,0.0822449
133,3,0.0129318,-0.000801086,-0.033493,-0.0644302,0.0737762
133,4,0.0273132,0.00465393,-0.175781,0.0207901,0.0588989
134,0,0.00965118,0.00476837,-0.089035,0.0056839,0.0558853
134,1,-0.0402069,3.81E-05,0.0563812,0.0651932,0.0548172
134,2,-0.0665665,-0.00202179,0.143738,0.0520706,0.0455093
134,3,-0.020752,0.00629425,0.158386,0.0485611,0.036087
134,4,0.0207901,0.0147247,0.139771,0.0590897,0.0396729
135,0,0.0421906,0.0232697,-0.183945,0.0802612,0.0436401
135,1,0.00728607,0.0185394,-0.124741,0.0835419,0.0540543
135,2,-0.00724792,0.0111389,0.435066,0.0149536,0.0554657
135,3,-0.00297546,0.00751495,0.201759,-0.152931,0.0606155
135,4,0.0217056,0.00297546,0.029335,-0.0941086,0.0349045
136,0,0.0254822,-0.00175476,-0.10952,0.0691605,0.0344086
136,1,-0.016861,-0.00774384,-0.195961,0.264511,0.0605011
136,2,-0.0252151,-0.010643,-0.0625229,0.248909,0.0429153
136,3,-0.0225067,-0.00156403,0.0732422,0.0753784,0.0317383
136,4,0.00255585,0.00358582,0.0816727,-0.00530243,0.0418854
137,0,0.0142288,0.00785828,0.13382,-0.0708771,0.043602
137,1,0.0108337,0.0125885,0.223618,0.0455093,0.0478363
137,2,-0.030098,0.0125122,-0.0708008,-0.00335693,0.0524521
137,3,-0.0457764,0.012207,-0.205498,-0.0154114,0.0729752
137,4,0.01297,0.00537872,0.00827789,-0.0675964,0.0624466
138,0,0.015831,-0.0012207,0.175552,-0.0372314,0.0684357
138,1,0.0134277,-0.00843048,0.193634,0.0391769,0.0727081
138,2,0.0296402,-0.0112534,0.139961,0.067215,0.0699997
138,3,0.0522995,-0.0120926,0.0601196,0.0713348,0.072403
138,4,0.0871658,-0.0143433,-0.0403595,0.0969315,0.0636292
139,0,0.0587845,-0.0170135,0.00442505,0.0577545,0.0595474
139,1,0.0310516,-0.0159836,0.156136,0.155334,0.0829315
139,2,-0.00995636,-0.0124741,0.336494,0.253677,0.0757599
139,3,-0.0387192,-0.00164032,0.268898,0.184135,0.0595856
139,4,-0.0177765,0.00450134,-0.00453949,0.0691986,0.0424576
140,0,-0.0239944,0.00144958,-0.207443,0.131073,0.0453949
140,1,-0.0286484,0.000152588,-0.212364,0.174866,0.0426865
140,2,0.00629425,0.00148773,-0.0517654,0.106888,0.0475311
140,3,0.0198364,-0.000495911,0.0673676,0.0366974,0.0485992
140,4,0.0306702,0.000267029,0.0412369,-0.0172424,0.0481796
141,0,0.0293732,0.00782013,-0.0506592,-0.00808716,0.0482178
141,1,0.000839233,0.0112915,-0.153427,-0.0101852,0.0519943
141,2,-0.0482178,0.000572205,0.11734,0.0613022,0.0598526
141,3,-0.058136,-0.00946045,0.342407,0.0733566,0.056572
141,4,-0.0593185,-0.0147247,0.138512,0.0223541,0.0603485
142,0,-0.0486374,-0.00705719,0.176811,0.0120544,0.0482941
142,1,-0.00461578,-0.000610352,0.133629,-0.0302887,0.0339127
142,2,0.00534058,0.00293732,-0.188179,0.0716782,0.0580597
142,3,0.00621796,0.00423431,-0.243607,0.130348,0.0649261
142,4,0.000190735,3.81E-05,-0.122185,0.0727844,0.0428772
143,0,-0.00579834,0.000457764,0.133934,0.0538635,0.0411606
143,1,-0.000686646,0.00667572,0.0211334,0.00350952,0.055275
143,2,0.0114822,0.00835419,0.154648,0.00953674,0.0576019
143,3,0.0214005,0.00282288,0.111542,0.0776291,0.0546265
143,4,0.0314331,0.00724792,0.0366974,0.141716,0.0376892
144,0,0.0408173,0.00923157,0.00240326,0.0623703,0.0297928
144,1,0.0265884,0.0044632,-0.081749,-0.0754547,0.0345612
144,2,0.0172043,-0.00343323,-0.0501633,-0.184975,0.0548172
144,3,0.0161362,0.000991821,0.0761414,-0.15255,0.0737
144,4,0.00705719,-0.00411987,0.033226,0.0173187,0.0699615
145,0,-0.00419617,0.00598907,-0.0372314,0.157127,0.0904846
145,1,0.00221252,0.0018692,0.0143051,0.159912,0.0924301
145,2,0.000457764,-0.0157928,0.136757,0.0827026,0.0813675
145,3,-0.00904083,-0.0148392,0.152245,0.0769043,0.073204
145,4,-0.00923157,-0.0111771,0.137405,0.0616074,0.0636292
146,0,-0.00595093,-0.00808716,0.155983,-0.00240326,0.0575256
146,1,-0.00476837,-0.0150299,0.118408,0.0287247,0.0595856
146,2,0,-0.0191116,0.0636673,0.0693893,0.0505066
146,3,0.0127029,-0.00740051,0.212708,0.043335,0.0455856
146,4,0.0200272,0.00328064,0.228233,0.0479507,0.0519943
147,0,0.0220108,-0.0114441,0.0795364,0.0946045,0.0565338
147,1,0.00873566,-0.0170517,-0.0475693,0.209846,0.0606537
147,2,-0.0157547,-0.00919342,0.0781631,0.220146,0.049324
147,3,-0.0305939,-0.000114441,-0.10437,0.11528,0.0519943
147,4,-0.0453568,0.00778198,-0.128059,-0.0448227,0.0479507
148,0,-0.046463,0.0307846,0.0815201,-0.000457764,0.0608826
148,1,-0.0411224,0.0473404,0.238037,0.1651,0.0733948
148,2,-0.031662,0.0527191,0.275879,0.0569916,0.0651932
148,3,-0.017128,0.0255203,0.214157,-0.0238037,0.0660324
148,4,-0.0110245,0.0196457,0.191154,-0.0119019,0.0549698
149,0,-0.00297546,0.0185394,0.00343323,0.0937271,0.0581741
149,1,0.00442505,0.0188446,-0.135002,0.121231,0.0479126
149,2,0.0160599,0.0198364,-0.223465,0.0894165,0.0382233
149,3,0.0170135,0.0143814,-0.281715,-0.0350952,0.0366974
149,4,0.0175476,0.0183105,-0.231514,0.0407791,0.0450516
150,0,0.0206375,0.0188828,-0.0492096,0.0207901,0.0543213
150,1,0.0226974,0.00198364,0.219841,0.0157547,0.0421143
150,2,0.0227356,-0.0063324,0.060463,0.0953293,0.0385666
150,3,0.0234222,-0.0202942,-0.173378,0.130386,0.0365448
150,4,0.0181961,-0.0398636,-0.0578308,0.0893402,0.0465775
151,0,0.0120163,-0.0468063,0.198364,0.0268555,0.0489044
151,1,0.00389099,-0.0472641,0.122452,0.0178146,0.0477219
151,2,-0.00370026,-0.0377274,0.10849,-0.0413895,0.0677109
151,3,-0.00740051,-0.0165558,0.0896072,-0.0157547,0.050354
151,4,-0.00862122,0.0094223,-0.125275,0.0739288,0.0596237
152,0,-0.00701904,0.0146866,-0.0492859,0.0581741,0.0505066
152,1,-0.00873566,-0.0153732,-0.0283432,-0.00823975,0.038681
152,2,-0.00915527,-0.0165939,0.129356,0.022583,0.0579453
152,3,-0.00782013,-0.00232697,0.199318,0.116501,0.0614166
152,4,-0.0044632,0.0127411,0.173454,0.0636673,0.0662613
153,0,-0.00328064,-0.0139618,0.110283,-0.0300217,0.0797272
153,1,0.000801086,-0.0123978,0.0254822,0.0442505,0.0766373
153,2,0.00221252,-0.00709534,0.18425,0.113792,0.0712967
153,3,7.63E-05,-0.010643,0.187454,0.0806808,0.0715256
153,4,-0.00087738,-0.00770569,0.0275803,0.0160599,0.0550079
154,0,0.00110626,0.00587463,-0.0447083,0.0105667,0.0559235
154,1,0.00160217,0.0199127,0.192795,0.110245,0.0728226
154,2,3.81E-05,-0.00244141,0.274849,0.113258,0.079422
154,3,0.00183105,-0.025177,0.0907135,0.209236,0.0785065
154,4,0.00389099,-0.0114059,0.108337,0.238266,0.0598145
155,0,0.00175476,-0.00858307,-0.0544357,0.0949097,0.0345612
155,1,0.00385284,-0.00862122,-0.217896,0.0190735,0.0350189
155,2,0.00637054,-0.000267029,-0.0043869,-0.0389099,0.051384
155,3,0.00656128,0.0135803,0.0744629,0.0730133,0.0533295
155,4,0.00610352,0.00350952,0.194168,0.0864029,0.0574493
156,0,0.00343323,0.00377655,0.127411,0.0218582,0.0459671
156,1,0.00488281,0.045929,-0.0885391,-0.000419617,0.0233841
156,2,0.00331879,0.0365067,-0.297508,-0.0115967,0.031395
156,3,0.00911713,0.0282669,-0.0133514,-0.00286102,0.0528336
156,4,0.0181961,0.0273895,0.100021,-0.10025,0.0516129
157,0,0.015831,0.0433731,0.0467682,0.0201416,0.0563049
157,1,0.0139999,0.0439835,0.033493,0.126419,0.0685883
157,2,0.00953674,0.00492096,0.0313187,0.124855,0.0608826
157,3,0.00598907,-0.00915527,0.0482559,0.0991058,0.0392532
157,4,0.00225067,-0.00934601,0.0912476,0.045929,0.034523
158,0,0.000610352,-0.0118637,0.117111,-0.00972748,0.0550079
158,1,-0.00305176,-0.0115585,0.148239,0.0259018,0.0740814
158,2,-0.0112152,-0.0217438,0.111122,0.0411224,0.0663757
158,3,-0.010376,-0.0165939,0.0452805,-0.0418472,0.0633621
158,4,-0.0104904,-0.00617981,0.0881958,0.0643158,0.0716782
159,0,-0.0120544,-0.00240326,0.155869,0.108147,0.0590897
159,1,-0.0152969,-0.0312424,0.2425,0.0737,0.0482178
159,2,-0.0141525,-0.0272369,-0.0722504,0.039711,0.0463486
159,3,-0.0131607,-0.0063324,-0.068512,-0.0127411,0.0476074
159,4,-0.0109482,0.00465393,0.000610352,0.00892639,0.0518417
160,0,-0.0069046,0.00774384,-0.00629425,0.0802231,0.0476837
160,1,-0.0018692,0.00648499,0.0704956,0.0404739,0.0517654
160,2,-0.00232697,0.00713348,-0.092659,0.0297928,0.0578308
160,3,-0.00267029,0.00965118,-0.0345612,0.10952,0.067749
160,4,-0.00614166,0.00572205,-0.00835419,0.138435,0.0674057
161,0,-0.00694275,0.00499725,0.0118256,0.126534,0.0621796
161,1,-0.00598907,-0.00564575,0.0170517,0.022049,0.0565338
161,2,-0.00720978,-0.0148773,0.0239563,0.054245,0.0577164
161,3,-0.0037384,-0.0163651,0.0410843,0.0934219,0.0561142
161,4,-0.00366211,-0.0120926,0.0549316,0.0723267,0.057373
162,0,-0.000190735,-0.00518799,0.0563049,0.0793839,0.0587845
162,1,0.00782013,-0.00320435,0.0567245,0.0758743,0.0600815
162,2,0.0156403,0.00274658,0.0543594,0.0691605,0.055542
162,3,0.0193787,0.00232697,0.0536346,0.0651932,0.0566864
162,4,0.0183105,0.00423431,0.0435638,0.0603867,0.056839
163,0,0.00736237,0.00682831,0.0320816,0.058136,0.0572586
163,1,0.000419617,0.0119781,0.0255966,0.0537872,0.0577545
163,2,0.000267029,0.01297,0.0213242,0.0511932,0.0521851
163,3,0.000495911,0.00862122,0.0193405,0.0495529,0.0510025
163,4,0.00286102,0.00778198,0.0188828,0.0465775,0.0499725
164,0,0.00911713,0.0063324,0.0174713,0.046463,0.0500488
164,1,0.0131989,0.00301361,0.01297,0.0419617,0.0520325
164,2,0.00656128,0.00152588,0.0180817,0.0396347,0.0570297
164,3,-0.00457764,0.00301361,0.022583,0.0388336,0.0590515
164,4,-0.0162506,0.000190735,0.0280762,0.0386429,0.0569534
165,0,-0.0196838,0.000534058,0.0350189,0.0384521,0.0562668
165,1,-0.0189209,-0.00408173,0.0440598,0.0444031,0.0568771
165,2,-0.0155258,-0.00595093,0.0535965,0.0404739,0.057106
165,3,-0.00797272,-0.00450134,0.0642014,0.0431442,0.0556564
165,4,-0.00305176,-0.00278473,0.073204,0.0432968,0.0589371
166,0,0.00343323,-0.00354767,0.0791931,0.0415421,0.0585556
166,1,0.0100327,-0.00240326,0.0862122,0.0447464,0.0572586
166,2,0.0088501,-0.00564575,0.0917816,0.0505066,0.0579453
166,3,0.00705719,-0.00804901,0.0934219,0.0508118,0.0574112
166,4,0.00370026,-0.0105667,0.0956345,0.0521851,0.0552368
167,0,-0.00102997,-0.00766754,0.0934982,0.0537491,0.0563431
167,1,-0.00087738,0.00431061,0.0915146,0.0535965,0.0533676
167,2,-0.00408173,0.0146103,0.087738,0.0531387,0.0515747
167,3,-0.0030899,0.0191116,0.0851059,0.0543213,0.0541306
167,4,0.00183105,0.0195313,0.0798035,0.0585938,0.0547028
168,0,0.0062561,0.0185013,0.0720215,0.057869,0.055809
168,1,0.0063324,0.0180054,0.0695419,0.0547409,0.0550842
168,2,0.00728607,0.0116348,0.0653076,0.0521851,0.056839
168,3,0.0125885,0.00427246,0.062561,0.0540543,0.0576019
168,4,0.00972748,0.0037384,0.0595856,0.0580978,0.0571442
169,0,0.00797272,-0.000839233,0.0566864,0.0563049,0.0541687
169,1,0.00686646,-0.00545502,0.0520325,0.0593567,0.0559235
169,2,-0.00228882,-0.0165176,0.0527954,0.059433,0.0528336
169,3,-0.00602722,-0.0180435,0.047226,0.0556183,0.0536728
169,4,-0.00797272,-0.0165558,0.0410461,0.0576782,0.0535202
170,0,-0.00827789,-0.0162506,0.0345612,0.0597,0.0541306
170,1,-0.0104141,-0.0174332,0.0331497,0.0571442,0.0508118
170,2,-0.00801086,-0.0149918,0.031662,0.0502396,0.0504303
170,3,-0.00270844,-0.0133514,0.0288391,0.0527191,0.0527191
170,4,0.00637054,-0.0128555,0.0286484,0.0524902,0.0508118
171,0,0.0148773,-0.00648499,0.0282669,0.0528717,0.0553131
171,1,0.0127029,-0.00175476,0.0256348,0.0540161,0.0565338
171,2,0.0094223,0.00770569,0.0222397,0.0522995,0.0598907
171,3,0.01091,0.0102997,0.0205994,0.0533295,0.0600815
171,4,0.0127029,0.00400543,0.0199127,0.0540543,0.0551987
172,0,0.0101852,0.00247955,0.0281143,0.0568008,0.0608063
172,1,0.0087738,0.00087738,0.0354385,0.0587463,0.0714111
172,2,0.0146103,0.0012207,0.0416565,0.0600433,0.0912857
172,3,0.0153732,0.00461578,0.0421906,0.0601196,0.111542
172,4,0.0111008,0.00656128,0.039711,0.0564194,0.102959
173,0,0.00541687,0.00476837,0.0344849,0.0502396,0.0626755
173,1,0.00389099,-0.00167847,0.033493,0.048027,0.0376511
173,2,-0.0025177,-0.00679016,0.0365829,0.0422287,0.0589752
173,3,-0.00377655,-0.00339508,0.0386429,0.0467682,0.0630951
173,4,-0.00576019,0.000953674,0.0464249,0.052681,0.0369263
174,0,-0.00862122,0.00400543,0.0499344,0.051651,0.0139618
174,1,-0.00934601,0.00896454,0.0454712,0.0537491,-0.0180054
174,2,-0.00759125,0.00808716,0.0445557,0.0533676,-0.0179291
174,3,-0.00480652,0.00259399,0.0489044,0.0488281,0.0209808
174,4,-0.00156403,0.00267029,0.0776672,0.049057,0.00843048
175,0,-0.00152588,0.00461578,0.142479,0.0540543,0.00881195
175,1,-0.0063324,0.00843048,0.149384,0.0578308,0.0746155
175,2,-0.0172424,0.00644684,0.133362,0.059433,0.0418854
175,3,-0.0234985,0.00400543,0.113144,0.0619888,0.022316
175,4,-0.0268936,0.00534058,0.0860977,0.0607681,0.062294
176,0,-0.0255203,0.00644684,0.0569534,0.0616455,0.0728607
176,1,-0.0208282,0.00171661,0.0349426,0.0576019,0.0751114
176,2,-0.0151443,0.00392914,0.0130463,0.0579071,0.109634
176,3,-0.0137711,0.00167847,-0.00427246,0.0576019,0.135002
176,4,-0.0179672,-0.00244141,-0.0169754,0.0531769,0.14183
177,0,-0.0213623,-0.00228882,-0.0314713,0.0530624,0.143852
177,1,-0.0119781,-0.00450134,-0.0368881,0.0506973,0.129318
177,2,-0.00179291,-0.00766754,-0.038414,0.0502396,0.100365
177,3,0.00377655,-0.00686646,-0.0371552,0.0506973,0.0669479
177,4,0.00598907,-0.0063324,-0.0339127,0.050621,0.0461197
178,0,0.0102997,-0.00514984,-0.0246811,0.0519943,0.0519562
178,1,0.0161362,-0.000267029,-0.0184631,0.0516129,0.0594711
178,2,0.0258255,-0.00415802,-0.00476837,0.0588989,0.0235367
178,3,0.0288773,-0.00396729,0.0109863,0.0603485,-0.0144958
178,4,0.0321579,-0.00385284,0.0240326,0.0580597,0.0242996
179,0,0.0291443,-0.00835419,0.0327301,0.0567245,0.00782013
179,1,0.0364685,-0.00671387,0.0421906,0.0520706,-0.0249481
179,2,0.0338745,-0.00267029,0.0515747,0.0508118,-0.0359344
179,3,0.0270844,-0.00087738,0.0623322,0.051918,-0.00976563
179,4,0.0164795,0.00156403,0.0669861,0.0545502,0.0291824
180,0,0.00480652,0.000267029,0.0749588,0.0528717,0.0639343
180,1,0.000343323,0.00152588,0.0778198,0.0525284,0.0856781
180,2,-0.000724792,0.00244141,0.0774765,0.0521851,0.0969696
180,3,-0.000152588,-7.63E-05,0.0800323,0.0524902,0.0915146
180,4,-0.0030899,-0.00331879,0.0830841,0.0486755,0.0851059
181,0,-0.00598907,-0.00289917,0.0792313,0.047226,0.0801849
181,1,-0.0069809,0.000686646,0.0769806,0.0528717,0.0719452
181,2,-0.0119019,-0.00293732,0.0789642,0.0501251,0.0760651
181,3,-0.0177383,-0.0038147,0.0777054,0.0489044,0.0728226
181,4,-0.0177765,0.000839233,0.0750351,0.0535583,0.0708389
182,0,-0.018158,0.000190735,0.0773239,0.0489807,0.0764847
182,1,-0.0147629,0.00152588,0.0769043,0.0525284,0.0807953
182,2,-0.0112915,0.00190735,0.0757599,0.0512695,0.0796127
182,3,-0.00953674,0.00263214,0.0733185,0.0468826,0.0548935
182,4,-0.0110626,0.00404358,0.0683975,0.0503922,0.0346375
183,0,-0.0106049,0.00175476,0.065918,0.049057,0.042038
183,1,-0.00759125,0.00545502,0.0688934,0.0520325,0.0387573
183,2,-0.00888824,0.00476837,0.0684738,0.0527191,0.0437546
183,3,-0.0107193,0.00656128,0.0626755,0.0516129,0.0545883
183,4,-0.00991821,0.00862122,0.0544357,0.0538254,0.0659561
184,0,-0.00770569,0.00865936,0.0512695,0.0550079,0.0595474
184,1,-0.00576019,0.0117493,0.0469589,0.0537872,0.0582504
184,2,-0.00484467,0.0119781,0.0391006,0.0542068,0.0649261
184,3,-0.00434875,0.0128555,0.0355911,0.0611877,0.0961304
184,4,-0.00282288,0.0136566,0.0337601,0.0567245,0.104485
185,0,-0.000648499,0.0146103,0.0263214,0.0546646,0.0847626
185,1,-0.00171661,0.0121689,0.0297928,0.0557327,0.00801086
185,2,0.000534058,0.0100327,0.0303268,0.0538635,-0.0684738
185,3,0.00267029,0.0094986,0.0321198,0.0571442,-0.0826645
185,4,0.00965118,0.0138474,0.0305939,0.0568008,-0.0484467
186,0,0.0157166,0.0153732,0.0305176,0.0562668,0.00144958
186,1,0.0114822,0.0143051,0.0304794,0.0571442,0.0912476
186,2,0.0154114,0.011673,0.0286484,0.0540924,0.162125
186,3,0.0191116,0.00457764,0.0291443,0.0544357,0.13607
186,4,0.0188446,0.00312805,0.0297928,0.0559235,0.090065
187,0,0.0196838,0.00125885,0.0310135,0.0531387,0.0681305
187,1,0.0177383,-0.00247955,0.0301361,0.0508118,0.0563812
187,2,0.0148392,-0.00614166,0.0399017,0.0527954,0.0308609
187,3,0.00839233,-0.00591278,0.0431061,0.0531387,0.0583649
187,4,0.0108337,-0.0075531,0.0357056,0.0558472,0.0524902
188,0,0.00751495,-0.0131607,0.0285721,0.0603104,0.07061
188,1,0.00274658,-0.0148773,0.0389862,0.0589371,0.122681
188,2,0.00087738,-0.015564,0.0466919,0.0534439,0.124664
188,3,0.00202179,-0.0156021,0.0482941,0.0553131,0.0902557
188,4,-0.00358582,-0.0169754,0.043869,0.0551605,0.056076
189,0,-0.00621796,-0.0181198,0.0431061,0.0488281,0.053215
189,1,-0.0088501,-0.0153351,0.0377274,0.050087,0.0875854
189,2,-0.0094986,-0.0170517,0.0355148,0.0501633,0.107689
189,3,-0.00499725,-0.0161362,0.0422668,0.050354,0.044899
189,4,-0.00305176,-0.0147629,0.0466156,0.0508881,-0.0518417
190,0,-0.00778198,-0.0140762,0.0505829,0.0526428,-0.0370407
190,1,-0.00732422,-0.01297,0.0549698,0.0524902,-0.0248718
190,2,-0.00263214,-0.0125885,0.0591278,0.0560379,0.0150299
190,3,0.0031662,-0.0111008,0.0552368,0.0570297,0.0667572
190,4,0.00919342,-0.00827789,0.0556946,0.0559235,0.0622177
191,0,0.00888824,-0.00461578,0.0548553,0.0542831,0.0415421
191,1,0.0113297,-0.00404358,0.0519562,0.053978,0.0557327
191,2,0.00991821,-0.00320435,0.0535202,0.0552368,0.0897598
191,3,0.00465393,0.00110626,0.054245,0.0538635,0.094986
191,4,-0.00236511,0.00263214,0.0498962,0.050354,0.0920868
192,0,-0.0149155,0.00549316,0.0503159,0.0516891,0.0798035
192,1,-0.025444,0.00782013,0.0434875,0.050087,0.0712204
192,2,-0.0217056,0.00789642,0.0453568,0.0517273,0.0739288
192,3,-0.00858307,0.00595093,0.0525284,0.052681,0.0653076
192,4,-0.000915527,0.00701904,0.0516891,0.0536346,0.0275421
193,0,0.00202179,0.00873566,0.0488281,0.0556564,0.0553894
193,1,0.0018692,0.00812531,0.0482941,0.0535583,0.0854492
193,2,0.00961304,0.00656128,0.0494003,0.0537872,0.0828552
193,3,0.0137711,0.00389099,0.0480652,0.0570297,0.0797653
193,4,0.00896454,0.00637054,0.0470734,0.057373,0.0896454
194,0,0.00431061,0.00911713,0.0469971,0.0537872,0.0687408
194,1,0.00892639,0.00995636,0.0468445,0.0514221,0.000114441
194,2,-0.0141525,0.00869751,0.0489807,0.0525284,-0.0333405
194,3,-0.0189209,0.00728607,0.0488281,0.0532913,-0.0088501
194,4,-0.0094223,0.00835419,0.0485992,0.0523758,0.0069046
195,0,0.00377655,0.00423431,0.0452042,0.0522995,0.0194931
195,1,0.00492096,0.00331879,0.0482178,0.0538635,0.0696564
195,2,-0.00465393,0.00434875,0.0485992,0.0555038,0.092392
195,3,-0.0124741,0.00377655,0.0496674,0.0543976,0.082016
195,4,-0.00614166,0.00343323,0.0455856,0.0524521,0.0623322
196,0,0.00156403,0.00312805,0.0427628,0.0547028,0.0406265
196,1,0.00465393,-7.63E-05,0.0411987,0.055275,0.0191879
196,2,0.00137329,-0.00232697,0.0403976,0.0560379,0.0830078
196,3,-0.00263214,-0.00213623,0.0391006,0.0531769,0.099678
196,4,-0.0124359,-0.00572205,0.0379944,0.0551605,0.0979614
197,0,-0.0167847,-0.00434875,0.0365067,0.054512,0.0841904
197,1,-0.0173569,-0.00358582,0.0425339,0.0511169,0.0645065
197,2,-0.00740051,-0.00476837,0.0451279,0.0497055,0.0567245
197,3,-0.00110626,-0.00534058,0.0450897,0.0495911,0.0443268
197,4,0.001297,-0.00629425,0.0415802,0.0512314,0.0654602
198,0,0.0088501,-0.00751495,0.0399017,0.0499344,0.109482
198,1,0.0123596,-0.00232697,0.0405884,0.0515747,0.0222015
198,2,0.0126648,-0.000610352,0.0446701,0.0547791,-0.0509644
198,3,0.0174332,-0.00171661,0.0463104,0.0590515,0.049057
198,4,0.0210571,0.00102997,0.0427628,0.0579071,0.087471
199,0,0.0169754,-0.00205994,0.0442505,0.0536728,0.0897217
199,1,0.000419617,-0.000724792,0.0462723,0.0521088,0.0629807
199,2,-0.00461578,-0.000686646,0.0434113,0.0524521,0.0408173
199,3,0.0113678,0.00598907,0.0481796,0.0574875,0.0272751
199,4,0.0195694,0.0105667,0.0506592,0.0541306,0.0534058
200,0,0.0270081,0.0163651,0.0505066,0.0533676,0.088501
200,1,0.0253677,0.00873566,0.0469589,0.0535202,0.0784683
200,2,0.0235367,0.00255585,0.0411987,0.0483704,0.0842667
200,3,0.0255966,-0.000648499,0.0395966,0.0466919,0.121803
200,4,0.0125122,0.00190735,0.0403976,0.048027,0.13443
201,0,0.00328064,0.000495911,0.0382996,0.0515366,0.0654984
201,1,-0.00347137,0.00263214,0.0396347,0.0543976,-0.014267
201,2,-0.00972748,0.00453949,0.052681,0.0600815,-0.0969696
201,3,-0.0280762,0.00377655,0.0567245,0.0622559,-0.0679398
201,4,-0.0393677,0.00679016,0.0566101,0.0640869,-0.0565338
202,0,-0.0389862,-0.00160217,0.0569916,0.0610352,0.0050354
202,1,-0.0270844,-0.00530243,0.0552368,0.0558472,0.068512
202,2,-0.0145721,-0.00904083,0.0497818,0.0526047,0.088768
202,3,-0.00713348,-0.0094223,0.0458527,0.0545502,0.101357
202,4,-0.00549316,-0.00911713,0.0448227,0.0512314,0.112991
203,0,-0.0019455,-0.0114059,0.0470352,0.0511932,0.122948
203,1,-0.00511169,-0.0122452,0.0440979,0.0482178,0.110931
203,2,-0.00362396,-0.00789642,0.0473785,0.0466919,0.0943756
203,3,-0.00282288,-0.00259399,0.0431824,0.0540161,0.0765228
203,4,-0.00171661,-0.00133514,0.0424957,0.0537491,0.0553131
204,0,-0.00644684,-0.000724792,0.0427628,0.0501251,0.0954819
204,1,0.0062561,-0.000648499,0.0423813,0.052681,0.131645
204,2,0.0190353,-3.81E-05,0.0456619,0.0534439,0.125389
204,3,0.0155258,-0.000457764,0.0419617,0.0533676,0.0973892
204,4,0.00240326,-0.00236511,0.0439835,0.0519562,0.0432587
205,0,-0.0202942,-0.00247955,0.0470352,0.0534058,-0.00526428
205,1,-0.0185013,-0.000495911,0.0507736,0.0551987,0.0172806
205,2,-0.00461578,-0.00087738,0.0492859,0.0582123,0.0208282
205,3,0.00915527,-0.0038147,0.0474167,0.0572586,0.0164032
205,4,0.024147,-0.00328064,0.0470352,0.0569153,-0.0115204
206,0,0.0266266,0.000495911,0.0507355,0.0546646,0.0331497
206,1,0.0273514,0.00766754,0.0505829,0.0548553,0.0571823
206,2,0.0167084,0.0109482,0.0468445,0.0558472,0.0626755
206,3,0.00617981,0.0198746,0.0402069,0.0554657,0.067215
206,4,0.00736237,0.0251389,0.0436401,0.0536346,0.0744247
207,0,0.00709534,0.0234222,0.0426483,0.0529099,0.0842285
207,1,0.00572205,0.0279999,0.0431442,0.0520706,0.0981522
207,2,-0.00728607,0.0252533,0.0434494,0.0563812,0.0733185
207,3,-0.0281906,0.0165939,0.0427246,0.0524902,0.0286102
207,4,-0.0300598,0.0101852,0.0450897,0.0558853,0.0359344
208,0,-0.0223923,0.00507355,0.0432205,0.0563431,0.0374603
208,1,-0.0181198,0.00247955,0.0437546,0.0524139,0.0261688
208,2,-0.016098,-0.00415802,0.0497055,0.0525284,-0.00141144
208,3,-0.00587463,-0.00751495,0.0495148,0.0508118,0.00614166
208,4,0.00297546,-0.0134659,0.0471497,0.0503922,-0.00751495
209,0,0.00236511,-0.0138474,0.0439835,0.0531006,0.0208282
209,1,0.00167847,-0.0118256,0.044899,0.0479889,0.0378799
209,2,0.0025177,-0.00858307,0.0416946,0.0472641,0.0807953
209,3,-0.0012207,-0.00236511,0.0414276,0.0487518,0.112076
209,4,0.000953674,-0.00118256,0.043335,0.0492096,0.128555
210,0,-0.001297,-0.0031662,0.0419617,0.0527191,0.103569
210,1,-0.0031662,-0.00286102,0.042572,0.0528717,0.091629
210,2,-0.00465393,-0.000648499,0.0435257,0.0585175,0.0863647
210,3,-0.0044632,0.00209808,0.047226,0.0576019,-0.0130081
210,4,-0.00595093,0.00328064,0.0463104,0.0566483,-0.0385666
211,0,-0.00537872,-7.63E-05,0.0445938,0.0574112,-0.0770569
211,1,-0.00682831,0.00125885,0.0477982,0.0539398,0.0540161
211,2,-0.00965118,0.00427246,0.0445557,0.0517273,0.139771
211,3,-0.00957489,0.0115585,0.0435638,0.0520325,0.157356
211,4,0.000114441,0.00705719,0.0406265,0.0529861,0.134201
212,0,0.00904083,-0.00236511,0.0403214,0.0473404,0.0682449
212,1,0.017128,0.000228882,0.0462723,0.0495148,-0.000114441
212,2,0.0288391,-0.00209808,0.0514221,0.0550079,0.0179672
212,3,0.0328445,-0.0094223,0.0509262,0.0575638,0.0539017
212,4,0.0352478,-0.0128555,0.0518799,0.0600052,0.079422
213,0,0.0369644,-0.0151443,0.0464249,0.057373,0.107956
213,1,0.0338364,-0.0177383,0.0495529,0.058136,0.105858
213,2,0.0167847,-0.0172424,0.0524139,0.0528717,0.0789642
213,3,0.00453949,-0.0111008,0.0491714,0.0539017,0.0518799
213,4,-0.00991821,-0.00450134,0.0445557,0.0519943,0.00926971
214,0,-0.0175095,-0.00835419,0.04879,0.0548935,0.055542
214,1,-0.0226212,-0.00541687,0.0469971,0.0557709,0.0731659
214,2,-0.0216675,-0.00556946,0.0447464,0.0504684,0.0609589
214,3,-0.0218964,-0.00545502,0.0410461,0.0516129,0.0661469
214,4,-0.0204086,-0.00461578,0.0389481,0.0515366,0.0673294
215,0,-0.0150299,-0.0019455,0.0412369,0.0553131,0.0669098
215,1,-0.0130463,-0.0063324,0.0367355,0.0543213,0.0661469
215,2,-0.00999451,-0.00301361,0.0405884,0.0511551,0.0611877
215,3,0.000839233,-0.00240326,0.0421524,0.0543213,0.0500107
215,4,0.0121307,-0.000228882,0.0434875,0.0538254,0.0417328
216,0,0.0192261,0.00244141,0.0488281,0.0531387,0.0374603
216,1,0.0226593,0.00263214,0.0512695,0.0534058,0.0455475
216,2,0.0238419,0.00598907,0.050087,0.0562286,0.0692368
216,3,0.0292206,0.00663757,0.0494766,0.0549698,0.0510406
216,4,0.0276184,0.00228882,0.0487137,0.051918,0.0539017
217,0,0.0300217,-0.000419617,0.0516129,0.0493622,0.0548935
217,1,0.0278473,0.0031662,0.0485992,0.0508499,0.0497055
217,2,0.0262833,0.00408173,0.050621,0.0524521,0.0313187
217,3,0.0200653,0.00610352,0.0470734,0.0550079,-0.00331879
217,4,0.0111771,-0.000457764,0.0492859,0.0524139,-0.0142288
218,0,0.00926971,-0.000915527,0.049324,0.0533676,0.0167084
218,1,0.00648499,0.000801086,0.0486374,0.0582123,0.0671768
218,2,0.00160217,0.00106812,0.0479507,0.055275,0.0931549
218,3,-0.00400543,0.00221252,0.0465393,0.0574493,0.111008
218,4,-0.00953674,0.000228882,0.0488663,0.0554276,0.0868988
219,0,-0.0156784,0.0018692,0.0477982,0.0537109,0.0313568
219,1,-0.0244522,0.00465393,0.0430679,0.0544357,-0.0149536
219,2,-0.0292206,0.0102234,0.0424957,0.0553131,-0.00904083
219,3,-0.0373077,0.0108719,0.0434494,0.0536728,0.00675201
219,4,-0.041008,0.00385284,0.039978,0.0538635,0.0354385
220,0,-0.0426483,0.00297546,0.0391769,0.0575256,0.0836182
220,1,-0.0469971,0.000724792,0.0341034,0.0509262,0.0991821
220,2,-0.0455093,0.000801086,0.0293732,0.0516129,0.0963211
220,3,-0.0409698,-3.81E-05,0.0338364,0.0521851,0.0878143
220,4,-0.0295258,-0.00125885,0.0363541,0.0521851,0.0772858
221,0,-0.0225449,-0.000457764,0.0399399,0.0502014,0.0599289
221,1,-0.016098,0.000267029,0.0421524,0.0542068,0.0847244
221,2,-0.00797272,-0.00125885,0.0427246,0.0518799,0.0773239
221,3,-0.00392914,-0.00259399,0.0450134,0.051384,0.0822449
221,4,-0.000495911,-0.00106812,0.0492477,0.0536346,0.0773621
222,0,0.00705719,-0.00198364,0.0494766,0.0561523,0.0940704
222,1,0.0115967,-0.000610352,0.0482941,0.0537491,0.103836
222,2,0.0228882,0.00255585,0.049324,0.0547791,0.0847244
222,3,0.0334549,0.0019455,0.0480652,0.0548172,0.09758
222,4,0.0374222,0.00453949,0.0473785,0.0530624,0.0895691
223,0,0.03479,0.0120926,0.0463486,0.0518417,0.0557709
223,1,0.039711,0.0163269,0.0490952,0.054245,-0.0407028
223,2,0.033493,0.0172424,0.0538635,0.0570679,0.00900269
223,3,0.0286102,0.00759125,0.0504684,0.0562668,0.0325775
223,4,0.0234604,0.00152588,0.0504303,0.0549316,0.00469208
224,0,0.0108719,-0.00183105,0.047226,0.0521088,-0.00709534
224,1,0.00274658,-0.0050354,0.0490952,0.0511169,-0.00720978
224,2,-3.81E-05,-0.00247955,0.0498962,0.0517273,0.0251007
224,3,0,-0.00282288,0.0524521,0.0485992,0.0588226
224,4,-0.000610352,-0.00331879,0.0528336,0.0528717,0.0473785
225,0,-0.000419617,-0.00320435,0.0532913,0.0498199,0.0577545
225,1,-0.000648499,0.000305176,0.0548553,0.0515747,0.0679398
225,2,-0.0037384,-0.000915527,0.0548172,0.051918,0.0989914
225,3,-0.012207,-0.00270844,0.0545502,0.055275,0.142632
225,4,-0.0159454,-0.00198364,0.0556183,0.0553894,0.12455
226,0,-0.0235748,-0.0019455,0.0533295,0.0543976,0.0456619
226,1,-0.0263214,0.00320435,0.0526428,0.0527573,-0.038414
226,2,-0.0220871,-3.81E-05,0.0551224,0.0542068,-0.0566864
226,3,-0.0136566,-0.000572205,0.0540924,0.0578308,0.00282288
226,4,-0.000724792,-0.00148773,0.0528717,0.0583267,0.0693512
227,0,0.0160599,-0.00713348,0.0521851,0.0549698,0.0907516
227,1,0.0315857,-0.00701904,0.047493,0.0547791,0.105743
227,2,0.0291061,-0.00701904,0.0432968,0.0548553,0.101547
227,3,0.0208664,-0.00453949,0.0441742,0.0556183,0.115929
227,4,0.00232697,-0.00411987,0.045929,0.0556946,0.12001
228,0,-0.0159073,-0.00400543,0.0394821,0.0577164,0.0941467
228,1,-0.00434875,-0.00293732,0.0417328,0.0552368,0.0851822
228,2,0.0166702,-0.000267029,0.0415421,0.0562286,0.0940323
228,3,0.0299454,0.000343323,0.0403214,0.0568771,0.0823212
228,4,0.0381088,-0.000724792,0.0377655,0.0563431,0.0559998
229,0,0.032959,0.000724792,0.0396729,0.053978,0.0296783
229,1,0.021553,0.00202179,0.0361252,0.0556183,0.0172806
229,2,0.0125122,0.00312805,0.0376511,0.0521469,0.0270462
229,3,0.0118256,0.00228882,0.0379181,0.052681,0.0334549
229,4,-0.00209808,0.00495911,0.0337982,0.0518036,0.0501251
230,0,-0.0172043,0.0050354,0.0354004,0.0494766,0.0709152
230,1,-0.0375748,0.00663757,0.0331116,0.050087,0.0831985
230,2,-0.0518036,0.00411987,0.0327682,0.0455856,0.0728607
230,3,-0.0587082,0.00450134,0.0344467,0.0487518,0.0577545
230,4,-0.0593185,0.00656128,0.039978,0.0522614,0.038414
231,0,-0.0497818,0.00370026,0.0404739,0.04673,0.00366211
231,1,-0.0369644,0.00110626,0.0397491,0.0469971,-0.0494385
231,2,-0.0316238,0.00473022,0.0400162,0.0519943,-0.0475693
231,3,-0.0223923,0.00205994,0.0453186,0.059967,-0.0743484
231,4,-0.0136185,0.00408173,0.0458908,0.0605392,-0.063324
232,0,-0.00812531,-0.0018692,0.0460815,0.0567245,0.0220871
232,1,0.00160217,-0.0157166,0.0475311,0.0541306,0.0755692
232,2,0.00827789,-0.0113678,0.0488663,0.0515366,0.107384
232,3,0.0108719,-0.00232697,0.0531769,0.0531769,0.133934
232,4,0.0172424,0.00431061,0.0538635,0.050621,0.143661
233,0,0.0234985,0.00640869,0.0517273,0.054245,0.12291
233,1,0.0273514,0.00972748,0.0528717,0.0567627,0.114517
233,2,0.0264359,0.0128937,0.0479126,0.0534058,0.106354
233,3,0.0231171,0.0235748,0.0446701,0.0506592,0.10273
233,4,0.0244141,0.0255585,0.0452805,0.0530243,0.0986481
234,0,0.0251389,0.0190353,0.0488281,0.0560379,0.086937
234,1,0.0208282,0.00717163,0.046463,0.0634003,0.071373
234,2,0.019722,-0.0127792,0.0440598,0.064888,0.0645447
234,3,0.0178146,-0.0258255,0.0376892,0.0747681,0.0548172
234,4,0.0183105,-0.0268173,0.0471115,0.0423813,0.0483704
235,0,0.0154877,-0.0141525,0.0526428,0.0335312,0.0444794
235,1,0.0140762,-0.0107193,0.052681,0.0468826,0.0465012
235,2,0.0120926,-0.0167465,0.0521088,0.0446701,0.042305
235,3,0.00499725,-0.0122452,0.0462723,0.0560379,0.0415421
235,4,0.00648499,-0.00289917,0.0458527,0.058403,0.0411606
236,0,0.00312805,0.00602722,0.0409698,0.0559998,0.0384521
236,1,-0.00137329,0.0151062,0.0473404,0.0503922,0.0440979
236,2,-0.00514984,0.0106812,0.0623703,0.051384,0.0468445
236,3,-0.00480652,0.0169754,0.0583649,0.052948,0.050621
236,4,-0.00434875,0.00591278,0.0512314,0.0538254,0.0635529
237,0,-0.00358582,-0.0141144,0.0473785,0.0556946,0.0489807
237,1,-0.00526428,-0.0204468,0.0523758,0.0568771,0.0373077
237,2,-0.00526428,-0.0252914,0.0490189,0.0488663,0.046463
237,3,-0.00667572,-0.0200272,0.043335,0.0535583,0.0667572
237,4,-0.00808716,-0.00743866,0.0455093,0.055275,0.0623322
238,0,-0.00717163,-0.00434875,0.0413132,0.056572,0.062027
238,1,-0.00999451,0.00583649,0.034256,0.0547791,0.0479507
238,2,-0.00930786,0.00289917,0.038414,0.0544357,0.0540161
238,3,-0.0101089,-0.00637054,0.0379944,0.0529861,0.0737
238,4,-0.0124359,0.000991821,0.0341797,0.0563049,0.0564194
239,0,-0.00835419,0.0140381,0.0339127,0.0575638,0.0119019
239,1,-0.00480652,0.0403214,0.0387955,0.0561905,0.0117111
239,2,-0.00595093,0.0222397,0.0605392,0.0597,0.05867
239,3,-0.0062561,-0.00511169,0.065918,0.0549698,0.0490189
239,4,-0.00656128,-3.81E-05,0.045166,0.0540543,0.0375748
240,0,-0.00247955,0.00671387,0.0177383,0.0502014,0.0357056
240,1,-0.00240326,-0.00202179,-0.00198364,0.0544739,0.0323486
240,2,7.63E-05,-0.0265121,0.0514984,0.0661469,0.00507355
240,3,-0.000534058,-0.0120163,0.0545502,0.0666046,0.0214005
240,4,-0.00267029,-0.00484467,0.0382233,0.0588608,0.0621796
241,0,-0.00102997,-0.0106049,0.0508881,0.0453186,0.0661469
241,1,0.00556946,0.00240326,0.0452423,0.0138855,0.0924301
241,2,0.00831604,0.0295258,0.0457764,0.0227356,0.114365
241,3,0.00396729,0.0358582,0.0495529,0.056076,0.115509
241,4,0.00457764,0.0252914,0.0549316,0.0570297,0.0815964
242,0,0.00286102,0.0190353,0.0556564,0.0561523,0.0388336
242,1,0.00408173,-0.00087738,0.0499344,0.0632477,0.0506592
242,2,0.00354767,-0.00648499,0.0434113,0.0576782,0.10025
242,3,0.00724792,-0.0312042,0.0427246,0.0582504,0.108757
242,4,0.00789642,-0.0173187,0.0509644,0.0587463,0.125046
243,0,0.00598907,0.00133514,0.0528717,0.0567627,0.0598907
243,1,0.00434875,-0.0147247,0.0605392,0.0555038,0.0341415
243,2,0.00499725,-0.0220871,0.0642014,0.0548935,0.0269318
243,3,0.00366211,-0.0167465,0.0641632,0.0505829,0.0568008
243,4,0.00911713,0.0244904,0.0495148,0.0514221,0.103989
244,0,0.0018692,0.0474167,0.0200653,0.0527191,0.162544
244,1,-0.000839233,-0.0250244,0.0283432,0.0514603,0.154648
244,2,-0.00190735,-0.0470352,0.0399399,0.0519562,0.115623
244,3,-0.00125885,-0.0461578,0.0694656,0.0538635,0.0327301
244,4,-0.00434875,-0.0131607,0.0683975,0.055809,-0.182304
245,0,-0.00457764,0.0382233,0.0630951,0.0614929,-0.304184
245,1,-0.00549316,0.0210571,0.0499725,0.0623322,-0.181923
245,2,-0.00286102,0.0282288,0.0262833,0.056839,-0.0115204
245,3,-0.000419617,0.0188446,0.0574112,0.0656891,0.0715256
245,4,-0.0030899,0.0279617,0.0760269,0.0962067,0.107574
246,0,-0.00396729,0.01194,0.101013,0.0844193,0.115623
246,1,-0.00415802,-0.0289154,0.0807571,0.0491333,0.117302
246,2,0.00038147,-0.0234222,0.0432968,-0.0267029,0.12352
246,3,0.000305176,0.0111008,0.0471115,-0.0500488,0.153084
246,4,-0.00038147,0.044899,-0.0050354,0.034523,0.16243
247,0,0.00270844,0.0222397,-0.0535583,0.0901413,0.152206
247,1,0.00408173,-0.0087738,0.00839233,0.106735,0.163116
247,2,0.00453949,-0.0203323,0.0629425,0.0817871,0.202637
247,3,0.00190735,-0.00965118,0.0186539,0.0569153,0.220871
247,4,0.00141144,0.0050354,-0.0419998,0.0456619,0.154266
248,0,-0.00350952,-0.00728607,-0.00152588,0.0280762,-0.0252914
248,1,-0.00675201,-0.0597763,0.0337601,0.0441742,-0.0556183
248,2,-0.00556946,-0.027504,0.0256348,0.0117493,-0.0550842
248,3,-0.00205994,-0.021553,0.0334167,0.0235367,-0.063591
248,4,-0.00274658,-0.0275803,0.0720215,0.0723648,-0.144234
249,0,-0.000114441,-0.0239182,0.0690079,0.0765991,-0.108261
249,1,0.00411987,-0.00614166,0.0643158,0.0884247,0.012207
249,2,0.00507355,0.0416183,0.074501,0.133743,0.0533295
249,3,0.0056076,0.0432968,0.104446,0.134811,0.0941849
249,4,0.00492096,-0.0186539,0.102348,0.100212,0.104141
250,0,0.00514984,-0.0166702,0.0654984,0.0253677,0.105896
250,1,0.0043869,0.0262451,0.143661,-0.0508881,0.11013
250,2,0.0056839,0.052681,0.161171,-0.00801086,0.115395
250,3,0.00205994,0.0442505,0.104218,0.0462723,0.0987244
250,4,0.000267029,0.032196,0.0521088,0.0848007,0.091629
251,0,-0.000686646,0.0752258,-0.0272751,0.0843048,0.0745392
251,1,0.00125885,0.0498199,-0.0395966,0.0881195,0.0574875
251,2,-0.00293732,-0.0193405,-7.63E-05,0.0852585,0.07267
251,3,-0.00408173,-0.00579834,-0.00484467,0.0200653,0.0803757
251,4,-0.00331879,-0.0306702,-0.0497818,-0.00358582,0.0804901
252,0,-0.00160217,-0.0291443,-0.0536728,-0.00457764,0.0464249
252,1,-7.63E-05,-0.0147629,-0.0696564,0.00679016,0.0341415
252,2,0.00038147,-0.0246429,0.051384,0.0755692,0.0349426
252,3,-7.63E-05,-0.0169373,0.126801,0.0900269,0.00183105
252,4,0.000305176,-0.0236893,0.0728607,0.0621033,-0.0025177
253,0,0.00259399,-0.0421906,0.0574112,0.0518799,0.03582
253,1,0.001297,-0.0404739,0.106773,0.0458908,0.0543594
253,2,-0.000495911,-0.00793457,0.0534058,0.0378418,0.07164
253,3,-0.00209808,0.0675583,0.0490189,0.0437927,0.101395
253,4,-0.00442505,0.0431824,0.028038,0.0589371,0.0850677
254,0,-0.00595093,-0.0234985,0.0651932,0.0666809,0.0328445
254,1,-0.00293732,-0.0945663,0.1474,0.0529861,0.0478745
254,2,-0.00225067,-0.0862503,0.0755692,0.0428009,0.03685
254,3,-0.00553131,-0.033989,0.0846863,0.108719,0.0281525
254,4,-0.00228882,0.00747681,-0.00289917,0.113449,0.0427628
255,0,0.000839233,0.0298309,-0.0182724,0.105896,0.0410843
255,1,0.0025177,0.0452042,0.0189209,0.051918,0.0547028
255,2,0.00679016,0.0351715,0.0581741,-0.0121307,0.0811768
255,3,0.00324249,0.0221634,0.146408,0.00686646,0.0838089
255,4,0.00236511,0.0211716,0.123672,0.0339127,0.059967
256,0,0.00362396,0.00797272,0.0545502,0.0700378,0.0254822
256,1,0.00549316,-0.0184631,0.0160217,0.0989532,0.00617981
256,2,0.00297546,-0.0494003,0.0130844,0.0679779,-0.0256348
256,3,-0.000190735,-0.0439072,0.0213623,0.0245285,-0.0194168
256,4,-0.000190735,-0.043869,0.080719,0.0339127,0.0238037
257,0,-0.0019455,-0.0486374,0.109215,0.042572,0.084343
257,1,-0.00286102,-0.00293732,0.13588,0.0315857,0.096283
257,2,-0.00118256,0.0740433,0.0476074,0.0610733,0.111923
257,3,-0.00175476,0.125008,-0.0277328,0.0752258,0.130615
257,4,-0.00679016,0.134621,0.00705719,0.0537872,0.119972
258,0,-0.000190735,0.141983,-0.0447464,0.0207138,0.0584793
258,1,0.000953674,0.164795,-0.00537872,0.016098,0.0459671
258,2,0.000762939,0.119362,0.0323486,0.0407791,0.0895691
258,3,-0.00331879,0.00915527,0.0382233,0.0992584,0.117645
258,4,-0.00225067,-0.077095,0.0372696,0.100136,0.0761032
259,0,-3.81E-05,-0.0916672,0.0302505,0.101967,0.0603867
259,1,0.00965118,-0.0774765,0.0354767,0.057106,0.102654
259,2,0.0105667,-0.076561,0.0244141,0.0261688,0.134125
259,3,0.0110626,-0.0609589,0.037384,0.0261307,0.134048
259,4,0.00751495,-0.0531006,0.0537109,0.0364304,0.0873566
260,0,0.00137329,-0.0442505,0.059166,0.0512695,0.000839233
260,1,-0.000686646,-0.0468063,0.0801849,0.0507355,-0.131073
260,2,0.00335693,-0.0523376,0.0720978,0.050354,-0.198441
260,3,0.00411987,-0.05867,0.0529861,0.059967,-0.0742722
260,4,0.00549316,-0.0518036,0.0413895,0.0614929,-0.0125885
261,0,0.0044632,-0.0294113,0.0419998,0.0572586,0.0346756
261,1,0.00331879,-0.00911713,0.0509644,0.0505829,0.0787354
261,2,0.00587463,0.00652313,0.0427628,0.0274277,0.115623
261,3,0.00450134,0.0148773,0.0326538,0.0281143,0.134392
261,4,-0.00347137,0.0259399,0.0370789,0.0475311,0.16468
262,0,-0.00465393,0.0200272,0.0466537,0.0707245,0.198975
262,1,-0.0105667,0.0217819,0.0493622,0.0773621,0.211563
262,2,-0.0112152,0.0340271,0.0360489,0.0493622,0.133057
262,3,-0.0130463,0.0402069,0.0458527,0.0160599,0.0360489
262,4,-0.0140762,0.0499725,0.0715637,0.0702667,0.0414276
263,0,-0.0120544,0.0535583,0.0904465,0.089798,0.0112915
263,1,-0.0111389,0.036087,0.0984192,0.0743484,-0.0244904
263,2,-0.0159836,0.00850677,0.0291061,0.0484467,0.0019455
263,3,-0.0154114,-0.00263214,-0.0183868,0.0165176,-0.0199509
263,4,-0.016098,-0.00419617,-0.0444412,0.0772858,-0.0212097
264,0,-0.010643,0.00911713,-0.00713348,0.130692,0.0279617
264,1,-0.00576019,0.0227356,0.00801086,0.0867844,0.0537872
264,2,-0.00232697,-0.00038147,0.072937,0.0190353,0.0684738
264,3,0.00495911,-0.0214386,0.0601578,-0.0201416,0.077858
264,4,0.00778198,-0.0351715,-0.000190735,-0.0517654,0.110168
265,0,0.00415802,-0.0368118,0.0133514,0.0367737,0.102844
265,1,0.00938416,-0.0318909,0.0398254,0.135651,0.0559998
265,2,0.0119781,-0.0319672,0.0470352,0.137215,0.0359726
265,3,0.0230408,-0.0331116,0.111771,0.109787,0.0487518
265,4,0.0279999,-0.0297928,0.192108,0.0663376,0.0228119
266,0,0.0185394,-0.0271606,0.0998688,0.057869,0.0227356
266,1,0.0190353,-0.0146484,0.0401306,0.0796127,0.0381088
266,2,0.017662,-0.00846863,-0.0502777,0.0785446,0.0653458
266,3,0.0199127,-0.00255585,-0.0318527,0.048027,0.0694656
266,4,0.0191879,0.00534058,0.0365067,0.0179672,0.0826263
267,0,0.0173569,0.0101471,0.0421143,-0.0441742,0.0852966
267,1,0.0120544,0.0170898,0.0323105,-0.0247955,0.0832367
267,2,0.00598907,0.0181198,0.123215,0.030365,0.090332
267,3,-0.00236511,0.0163651,0.149307,0.0942612,0.0765991
267,4,-0.00453949,0.0169373,0.0846863,0.107307,0.0586319
268,0,-0.00720978,0.0175476,0.10479,-0.000267029,0.0457764
268,1,-0.00785828,0.0170517,0.0692749,-0.0960922,0.0325394
268,2,0.00102997,0.0140381,-0.0934982,0.000610352,0.0463104
268,3,0.00202179,0.0110245,-0.0197601,0.126648,0.0518799
268,4,0.00278473,0.00534058,0.0601959,0.102501,0.0496292
269,0,0.00862122,0.000457764,0.12928,0.0321579,0.0655365
269,1,0.00591278,0.00228882,0.209389,0.0908661,0.066452
269,2,-0.0131226,-0.000343323,0.166779,0.187225,0.0498199
269,3,-0.02285,-0.00102997,0.0333023,0.189209,0.0553131
269,4,-0.0299835,-0.00377655,-0.151062,0.079689,0.0460434
270,0,-0.0361633,-0.00133514,-0.10685,-0.0212097,0.0489426
270,1,-0.0349808,0.00156403,-0.0574112,-0.0510406,0.0493622
270,2,-0.0232697,0.0116348,-0.0310898,-0.0267029,0.0422668
270,3,-0.00476837,0.014534,0.115433,0.0726318,0.0345612
270,4,0.00442505,0.00923157,0.134811,0.103455,0.039444
271,0,0.00423431,0.00793457,0.0860596,0.0976181,0.0500107
271,1,0.000686646,-0.00328064,0.0121307,0.0557327,0.0525284
271,2,0.00038147,-0.0019455,-0.00709534,0.0224304,0.0496292
271,3,0.00175476,0.00106812,0.022049,-0.032692,0.0556564
271,4,0.00293732,-0.0018692,0.00289917,0.0260162,0.0637054
272,0,0.0222015,0.000915527,0.0493622,0.147896,0.0601578
272,1,0.0295258,0.00518799,0.0298309,0.205116,0.0569153
272,2,0.0223541,0.00770569,0.0360107,0.0678635,0.0587845
272,3,0.0137329,0.00514984,0.0584412,-0.09655,0.050354
272,4,0.0038147,-0.000610352,0.0309372,0.00591278,0.0421906
273,0,-0.00240326,-0.00495911,0.0246048,0.0321579,0.0462723
273,1,0.00598907,0.000419617,0.0669098,0.252075,0.053978
273,2,0.00339508,0.0018692,0.0473785,0.156174,0.0486755
273,3,-0.001297,0.00774384,0.0486755,-0.0543594,0.0610352
273,4,0.00301361,0.0069046,0.0973511,-0.119743,0.0696182
274,0,0.00247955,0.00339508,0.194778,-0.096817,0.0698471
274,1,-0.000152588,-0.000267029,0.220566,0.197945,0.0769424
274,2,0.00457764,0.00480652,0.183182,0.22377,0.0832748
274,3,-0.00823975,0.00495911,0.0765228,0.0701904,0.0790787
274,4,-0.0424576,-0.00431061,0.0345993,-0.0726318,0.0615311
275,0,-0.0387573,-0.00530243,0.0289536,-0.0634384,0.069046
275,1,-0.0146866,-0.00335693,0.0258636,-0.0373077,0.061264
275,2,-0.00213623,-0.001297,-0.00938416,-0.0542831,0.0479507
275,3,0.000839233,-0.00247955,0.105476,0.0402451,0.0632858
275,4,-0.00709534,-0.0101852,0.0193787,0.138664,0.0754547
276,0,-0.0157166,-0.0115204,-0.0935364,0.192528,0.0731659
276,1,0.00160217,-0.00751495,0.0108719,0.159035,0.0615311
276,2,0.0358963,0.00537872,0.0768661,0.123444,0.0502014
276,3,0.0494003,0.00915527,0.0799942,0.0892639,0.0310135
276,4,0.0344849,-0.00774384,0.00457764,0.0452423,0.0201416
277,0,0.00564575,-0.0270081,-0.105247,0.0130081,0.0213623
277,1,-0.0252533,-0.0313187,-0.206413,0.0352478,0.0220108
277,2,-0.0235367,-0.0250626,-0.0135422,0.0791931,0.0322342
277,3,-0.00907898,-0.0143433,0.159111,0.0893021,0.0417709
277,4,0.00595093,-0.0102997,0.199966,0.0682449,0.0505447
278,0,0.00305176,-0.00358582,0.0463486,0.0056076,0.0660324
278,1,0.0044632,-0.000953674,-0.00854492,-0.00827789,0.0685501
278,2,-0.0102997,-0.00579834,-0.0803757,0.000534058,0.0733566
278,3,-0.0384521,-0.0107193,-0.0361633,0.0276947,0.063324
278,4,-0.051918,-0.0157928,0.0847626,-0.0115967,0.0656891
279,0,-0.0460434,-0.00675201,0.273743,0.0056076,0.0556564
279,1,-0.0300217,0.000915527,0.477943,0.170479,0.0295258
279,2,-0.0125885,0.0114441,0.151329,0.187111,0.0349808
279,3,0.0112152,0.0172806,-0.0688553,0.145264,0.0466919
279,4,0.0281525,0.0190735,-0.0728989,0.200958,0.0330734
280,0,0.0325012,0.016861,-0.317535,0.00225067,0.0209427
280,1,0.0409698,0.0118637,-0.313377,-0.0798035,0.032692
280,2,0.0608063,0.0176239,-0.0681305,-0.0668335,0.0574112
280,3,0.0614548,0.0269699,0.0603485,0.0629807,0.0896835
280,4,0.0456619,0.0210571,0.0469208,0.131493,0.10006
281,0,0.0380325,0.0140762,-0.0191498,-0.060463,0.0848389
281,1,0.0458908,0.0125504,0.218391,-0.0828934,0.0753403
281,2,0.0349808,0.00514984,0.291672,0.0101852,0.0730133
281,3,0.0300217,0.000267029,0.147705,0.0535583,0.0695038
281,4,0.0118256,-0.0137711,0.129051,0.119781,0.0496292
282,0,-0.0260925,-0.0217819,-0.0361633,0.0856781,0.0422668
282,1,-0.0686264,-0.0191498,-0.148125,0.0232697,0.0616074
282,2,-0.104103,-0.0226593,0.0286102,0.028801,0.0839996
282,3,-0.0574112,-0.0200653,0.203819,0.0623703,0.0839615
282,4,-0.000801086,-0.00972748,0.157928,0.124435,0.0711441
283,0,-0.0175095,-0.00141144,0.0689697,0.179443,0.0750732
283,1,0.00549316,0.00991821,0.181198,0.114555,0.0649643
283,2,0.0361633,0.0248337,0.164375,-0.00392914,0.0535583
283,3,0.0855637,0.031929,0.0631332,-0.0746918,0.0344467
283,4,0.102692,0.0326538,0.0325394,0.00324249,0.0421143
284,0,0.0629807,0.0273514,-0.0732422,0.0532913,0.0501251
284,1,-0.00728607,0.0210953,-0.204887,0.0897217,0.0481415
284,2,-0.0681305,0.0144577,-0.21244,0.0845337,0.0330734
284,3,-0.0642395,0.00637054,0.140762,0.0614166,0.0307465
284,4,0.0031662,0.00476837,0.200691,0.0392532,0.0470734
285,0,0.0162125,0.00476837,0.208015,0.0657272,0.0524902
285,1,-0.00682831,0.00404358,0.113831,0.106888,0.0658417
285,2,-0.00797272,-0.00232697,0.145416,0.112228,0.0637436
285,3,-0.0136948,-0.00904083,0.0827789,0.0978088,0.044632
285,4,-0.0248337,-0.0149155,0.226135,0.0469589,0.0380325
286,0,-0.0510025,-0.019722,0.213356,0.031395,0.0541687
286,1,-0.0437164,-0.0160599,0.145302,0.0233459,0.0463486
286,2,-0.0276566,-0.0214005,0.215111,0.0566864,0.0441742
286,3,-0.0311661,-0.0242615,-0.224648,0.0119781,0.0495529
286,4,-0.0536728,-0.0237274,-0.401726,-0.0983429,0.0610733
287,0,-0.0925064,-0.0257492,0.164871,0.0297546,0.0606537
287,1,-0.1297,-0.0180054,0.287895,0.174637,0.0649643
287,2,-0.0940704,-0.00293732,0.0221252,0.246353,0.0670624
287,3,-0.0239563,0.000991821,-0.00305176,0.102234,0.0683212
287,4,0.0405121,-0.00968933,0.0488281,0.0619888,0.0644684
288,0,0.0843048,-0.00640869,0.0880432,0.106239,0.0257874
288,1,0.125732,0.00640869,-0.0964355,0.086937,0.00240326
288,2,0.127602,0.0107574,-0.185509,-0.059433,0.0236893
288,3,0.123253,0.0201797,-0.2388,-0.0682449,0.0674057
288,4,0.10643,0.0236893,-0.367699,-0.0170517,0.067215
289,0,0.0846481,0.0234604,-0.116844,-0.0640869,0.0549316
289,1,-0.000762939,0.0247955,0.0554657,0.0153351,0.0644684
289,2,-0.064621,0.0241852,0.123672,0.071106,0.0770187
289,3,-0.0735092,0.0165558,-0.039978,0.158424,0.0618362
289,4,-0.0434494,0.00705719,-0.0179291,0.106544,0.0534439
290,0,-0.0296021,-0.00320435,0.267677,0.0568008,0.0693893
290,1,0.00225067,-0.00713348,0.219612,0.0571442,0.0809479
290,2,0.0183105,-0.00644684,0.138283,-0.057106,0.069046
290,3,0.0200272,-0.0108337,0.12928,-0.0397491,0.0616074
290,4,0.0175858,-0.0129318,0.104904,0.0340652,0.0722504
291,0,0.00984192,-0.0154114,0.0941467,0.117645,0.0763702
291,1,0.0111771,-0.0149155,0.178223,0.163155,0.0741959
291,2,0.0178528,-0.0101852,0.149307,0.00419617,0.0685501
291,3,0.0177765,-0.00774384,0.136032,-0.0712204,0.072403
291,4,0.013504,-0.00995636,0.106163,0.00209808,0.0759888
292,0,0.00541687,-0.00732422,0.17662,0.186844,0.0693512
292,1,0.00370026,-0.00293732,0.100212,0.261879,0.0495911
292,2,-0.000534058,0.00125885,0.234871,0.208168,0.0439072
292,3,-0.00370026,0.0100708,0.26577,0.136337,0.0457764
292,4,-0.0161362,0.00999451,0.147781,0.0849152,0.0467682
293,0,-0.0318527,0.0069809,-0.160522,0.0143814,0.0363541
293,1,-0.0336075,-3.81E-05,-0.299339,-0.0950241,-0.0075531
293,2,-0.0262451,-0.00644684,-0.0116348,-0.0162506,0.00774384
293,3,-0.0255203,-0.0116348,0.000495911,0.08461,0.0301743
293,4,-0.021286,-0.00728607,0.187225,0.040741,0.0518799
294,0,-0.0174713,-0.00202179,0.1548,-0.0608826,0.0482941
294,1,-0.00995636,-0.00175476,-0.0848389,0.0279617,0.0419998
294,2,-0.00598907,-0.000801086,-0.319138,0.154228,0.0439072
294,3,-0.00434875,-0.00301361,-0.423737,0.0470352,0.041275
294,4,-0.00190735,-0.00202179,-0.251007,-0.0363159,0.050621
295,0,0.00198364,0.00411987,0.039444,0.0273895,0.0619507
295,1,0.000305176,0.00167847,0.118484,-0.0114441,0.0654984
295,2,0.00621796,-0.00431061,0.0128174,0.00175476,0.0813675
295,3,0.00537872,-0.000190735,0.0600052,-0.0198364,0.0734329
295,4,0.00713348,0.0043869,0.109711,-0.0300217,0.054245
296,0,0.00843048,-0.00225067,0.169945,0.124283,0.055809
296,1,0.0069809,-0.0105286,0.291977,0.212593,0.0644684
296,2,0.0094986,-0.01091,0.18158,0.114326,0.0815964
296,3,0.00629425,-0.00190735,0.0829697,0.0283813,0.0655365
296,4,0.00854492,0.000762939,0.177956,0.0614929,0.087204
297,0,0.0124741,0.00362396,0.0564575,0.140076,0.0821686
297,1,0.0113297,0.00740051,0.0865936,0.172768,0.0571442
297,2,0.00614166,0.0220871,-0.00476837,0.119781,0.0630188
297,3,0.00644684,0.0211334,0.0902557,-0.000534058,0.0627899
297,4,0.00652313,0.022583,-0.126457,-0.0473785,0.0566101
298,0,0.00549316,0.0289536,-0.0635529,-0.0112152,0.0542831
298,1,0.00354767,0.0123596,0.144615,0.0344849,0.056572
298,2,0,0.00988007,0.00957489,-0.089035,0.0572205
298,3,-0.00175476,0.00892639,-0.0101852,-0.034256,0.0660706
298,4,-3.81E-05,-0.00621796,0.144653,0.104713,0.0687027
299,0,-0.00293732,-0.00972748,0.266876,0.113792,0.0529099
299,1,-0.00774384,-0.00488281,0.102577,0.132828,0.0351334
299,2,-0.0111008,0.00480652,0.0274277,0.102959,0.0437546
299,3,-0.017662,0.0163269,0.246811,0.167198,0.0495148
299,4,-0.0119781,0.0287247,0.320091,0.207634,0.0407791
300,0,-0.0101089,0.0199127,0.152092,-0.057106,0.0419235
300,1,-0.00873566,-0.000839233,-0.156326,-0.119896,0.0168228
300,2,-0.0056839,-0.00720978,-0.266724,0.0702667,0.0320053
300,3,-0.00255585,-0.0146103,-0.199852,0.216255,0.0513458
300,4,-0.00377655,-0.0130844,-0.0862122,0.129089,0.0468063
301,0,0.000343323,0.000610352,0.039444,-0.030365,0.0456238
301,1,0.00232697,0.0107574,0.0382996,-0.0683212,0.0348663
301,2,0.00183105,0.00862122,0.171776,0.0205994,0.0498962
301,3,0.00720978,-0.014267,0.106125,0.0476456,0.0641632
301,4,0.00862122,-0.0204849,-0.0157166,0.122948,0.0748825
302,0,0.0122452,-0.0210953,-0.0904846,0.0377274,0.0774384
302,1,0.00492096,-0.0218964,-0.00274658,-0.127029,0.0717545
302,2,0.0075531,-0.0174332,0.152512,0.00595093,0.0785065
302,3,0.00202179,-0.0152206,0.133057,-0.01297,0.0746155
302,4,0.000152588,-0.0149536,0.101242,0.0368118,0.0657272
303,0,0.00358582,-0.0120544,0.090065,0.122871,0.062027
303,1,0.00259399,-0.00988007,0.0699615,0.164604,0.0566101
303,2,0.000267029,-0.00972748,0.0667191,0.169106,0.0538635
303,3,-0.00110626,-0.0107956,0.0303268,0.0753021,0.0592422
303,4,0.00232697,-0.00576019,0.0865936,0.00583649,0.0565338
304,0,0.00320435,-0.00282288,0.0717163,0.0538254,0.0542831
304,1,0.00545502,-0.00526428,0.0601196,0.0492859,0.055809
304,2,0.00640869,-0.000267029,0.0228119,0.0704193,0.0576019
304,3,0.00350952,-0.00167847,0.0538635,0.082283,0.04776
304,4,0.00392914,-0.00148773,0.0466156,0.0387192,0.0441742
305,0,0.00362396,-0.00171661,0.0100708,0.0148773,0.0531769
305,1,0.00297546,0.00385284,-0.0524902,0.0920868,0.0621033
305,2,0.00205994,0.00347137,-0.0160599,0.0925827,0.0613785
305,3,0.00106812,0.00576019,0.170403,0.0439072,0.0698853
305,4,0.00141144,0.00411987,0.161858,0.0637436,0.0692368
306,0,0.00476837,0.00175476,0.00988007,0.091095,0.0617599
306,1,0.00572205,0.00617981,-0.135536,0.107536,0.055275
306,2,-0.00190735,0.00679016,-0.0307083,0.072937,0.0445175
306,3,-0.00190735,0.0113678,0.0586319,0.0407791,0.0291443
306,4,-0.00370026,0.0147629,0.00495911,0.0436783,0.0286102
307,0,-0.00553131,0.0160599,-0.057106,0.0373077,0.0402451
307,1,-0.00785828,0.0125885,-0.0862503,-0.00450134,0.0466156
307,2,-0.00637054,0.00717163,-0.0547409,-0.0256348,0.0575256
307,3,-0.00518799,0.00778198,0.0844574,-0.00579834,0.0582504
307,4,-0.00335693,0.00907898,0.0895691,0.025177,0.0577164
308,0,-0.00556946,0.00457764,0.110321,0.042305,0.0640106
308,1,-0.0088501,0.00473022,0.0569916,0.0543594,0.0640488
308,2,-0.00991821,0.00526428,0.0932312,0.0658417,0.0597
308,3,-0.0116348,0.000724792,0.103035,0.0666046,0.0503922
308,4,-0.0069809,0.00160217,0.10788,0.0590515,0.0527573
309,0,-0.00133514,0.0037384,0.108299,0.0695038,0.0593948
309,1,0.00305176,0.00465393,0.0833893,0.0706482,0.0577164
309,2,0.00312805,3.81E-05,0.071373,0.0670242,0.056572
309,3,0.00823975,-0.00534058,0.0823212,0.065155,0.0601196
309,4,0.0108337,-0.00377655,0.124283,0.0628281,0.058136
310,0,0.0125885,-0.00152588,0.0971985,0.0546265,0.0493622
310,1,0.0111008,7.63E-05,0.0892639,0.0369644,0.04879
310,2,0.0134277,0.00221252,0.0183487,0.0456619,0.0602722
310,3,0.0102234,0.00305176,-0.0648499,0.0447464,0.0596619
310,4,0.00442505,0.00247955,-0.0393295,0.0426483,0.0516891
311,0,0.0062561,-0.000953674,0.030365,0.0609207,0.0522614
311,1,0.00610352,-0.000648499,0.031395,0.0646973,0.0579453
311,2,0.0062561,-0.00144958,0.0336456,0.0557709,0.0595474
311,3,-0.00114441,-0.001297,0.000457764,0.0162125,0.0583267
311,4,-0.000534058,-0.00320435,0.0938416,0.0668335,0.0601196
312,0,0.00408173,-0.00686646,0.0647354,0.059433,0.0541306
312,1,0.0069046,-0.00495911,0.00961304,0.0438309,0.0534058
312,2,-0.00312805,-0.00598907,0.0463104,0.0499344,0.0555038
312,3,-0.00644684,-0.00774384,0.0546646,0.0583649,0.0564957
312,4,-0.00682831,-0.00679016,0.0554276,0.0608826,0.0600052
313,0,-0.00392914,-0.00511169,0.0612259,0.0691605,0.0587845
313,1,-0.00278473,-0.00202179,0.0640488,0.0651932,0.0538254
313,2,-0.00614166,-0.00179291,0.0593567,0.0605774,0.0542831
313,3,-0.00839233,-0.00118256,0.0587845,0.0622177,0.0532913
313,4,-0.0107574,0.00110626,0.0595093,0.0619507,0.0559235
314,0,-0.0130463,0.000495911,0.0593948,0.060463,0.059433
314,1,-0.0168991,-0.000419617,0.053215,0.0614166,0.0571823
314,2,-0.0203705,-0.00106812,0.0488281,0.0588989,0.0572205
314,3,-0.0181198,-0.000839233,0.0502014,0.0548935,0.0575638
314,4,-0.00892639,-0.00324249,0.047493,0.0536346,0.0583649
315,0,0.00102997,-0.00118256,0.0431442,0.0507736,0.0614166
315,1,0.00324249,-0.000152588,0.0437164,0.0497437,0.0579834
315,2,0.000610352,0.0025177,0.047226,0.0499344,0.0589752
315,3,-0.00148773,0.00640869,0.0429535,0.0495529,0.0563049
315,4,0.00232697,0.00591278,0.0378799,0.0496674,0.0538635
316,0,0.0030899,0.00419617,0.0335312,0.0503159,0.0517273
316,1,0.00637054,-0.00339508,0.0343323,0.0497818,0.0519943
316,2,0.00766754,0.001297,0.0332642,0.0496674,0.0539398
316,3,0.00289917,0.0030899,0.0352859,0.0539017,0.0532532
316,4,-0.00343323,0.00587463,0.038147,0.0493622,0.0527954
317,0,-0.00385284,0.00965118,0.0376129,0.0502014,0.0529099
317,1,-0.000572205,0.0115967,0.0402832,0.0496674,0.0534439
317,2,0.0044632,0.00934601,0.0442886,0.0483322,0.0538635
317,3,0.0127792,0.00423431,0.0457001,0.051918,0.0546646
317,4,0.0180817,0.0056839,0.0482941,0.0506592,0.0559235
318,0,0.0191498,0.00774384,0.0553513,0.0522232,0.0559616
318,1,0.0131989,0.00659943,0.0580597,0.0505829,0.054512
318,2,0.00957489,0.000991821,0.0588989,0.0477982,0.056076
318,3,0.00530243,-0.000915527,0.0582504,0.052948,0.0561142
318,4,-0.000991821,0.000495911,0.0553894,0.0554276,0.0535202
319,0,-0.0018692,-0.00209808,0.0505066,0.0527954,0.0521469
319,1,-0.00659943,-0.00701904,0.0442505,0.0510788,0.046196
319,2,-0.00419617,-0.0110245,0.0375366,0.0533295,0.0456619
319,3,-0.00320435,-0.00576019,0.0355911,0.0566101,0.0481796
319,4,-0.0062561,-0.00751495,0.0344467,0.0526047,0.0514984
320,0,-0.00740051,-0.00869751,0.0348663,0.0499725,0.0516891
320,1,-0.00526428,-0.00835419,0.0341034,0.0517273,0.0556183
320,2,-0.00324249,-0.00598907,0.0312805,0.0540161,0.064888
320,3,0.000267029,-0.00404358,0.0252533,0.0537491,0.062027
320,4,0.00377655,-0.000953674,0.0244522,0.0562286,0.0816345
321,0,0.0106049,-0.001297,0.0296021,0.0606537,0.0946426
321,1,0.0111771,0.000267029,0.0289536,0.0593948,0.0889969
321,2,0.0120163,0.00293732,0.0272369,0.0602341,0.0832748
321,3,0.0159836,0.00152588,0.0265121,0.0572586,0.0933838
321,4,0.0155258,0.00213623,0.0268555,0.0545883,0.0998688
322,0,0.0147629,0.0113297,0.02491,0.0547409,0.0693893
322,1,0.0126648,0.00656128,0.0330353,0.0586319,0.0220871
322,2,0.0117493,-0.000228882,0.0396729,0.059166,0.00759125
322,3,0.0102615,-0.00583649,0.0494385,0.0613022,-0.0281525
322,4,0.00595093,-0.00759125,0.0536346,0.056839,-0.0193405
323,0,0.00545502,-0.0104523,0.0549316,0.0487137,0.0270081
323,1,-0.00175476,-0.0102997,0.0538254,0.048027,0.0216675
323,2,-0.00171661,-0.0103378,0.0532913,0.0447464,0.03479
323,3,-0.00617981,-0.00263214,0.0592422,0.0485992,0.0743866
323,4,-0.0114059,-0.00152588,0.0690842,0.0536346,0.0827026
324,0,-0.0127029,-0.000495911,0.0789261,0.0562286,0.0382996
324,1,-0.013237,0.00267029,0.0825119,0.0594711,0.0191116
324,2,-0.0136185,0.000762939,0.0814438,0.0590897,0.0287628
324,3,-0.00328064,0.00259399,0.0823212,0.0606155,0.0428772
324,4,-0.000801086,0.00110626,0.0801468,0.0555801,0.0471878
325,0,-0.00549316,0.00679016,0.072937,0.0518036,0.0643158
325,1,-0.0182343,0.00617981,0.0587082,0.0477982,0.110092
325,2,-0.0233841,0.00164032,0.0526047,0.0456619,0.128822
325,3,-0.00843048,-0.000648499,0.0507355,0.0502014,0.127792
325,4,0.00572205,-0.0025177,0.0481033,0.047226,0.0917435
326,0,0.0126648,-0.00209808,0.0441742,0.0428391,0.0265503
326,1,0.00511169,0.00297546,0.0460052,0.0524902,0.0727844
326,2,0.00102997,0.00209808,0.0424194,0.0554276,0.00656128
326,3,0.00793457,-0.00038147,0.0402832,0.0525284,0.0350571
326,4,0.00965118,-0.000343323,0.0379562,0.0503159,0.0738525
327,0,0.00152588,-0.000648499,0.038681,0.0517273,0.0459671
327,1,-0.0019455,-0.00495911,0.0421524,0.0523376,0.0218201
327,2,0.00110626,-0.00179291,0.0424576,0.0577545,0.0524521
327,3,-0.00358582,0.00152588,0.0371933,0.0579453,0.0904465
327,4,-0.00770569,0.00183105,0.0360489,0.0546265,0.122223
328,0,-0.00724792,0.00144958,0.0336456,0.0551605,0.144386
328,1,-0.0126266,-0.00213623,0.0310135,0.0503922,0.153046
328,2,-0.0152969,-0.00038147,0.0294113,0.0539398,0.13588
328,3,-0.0136566,-0.000305176,0.0260162,0.0510406,0.0981522
328,4,-0.0150681,-0.0030899,0.030365,0.0550461,0.0657272
329,0,-0.0175095,-0.00179291,0.0346756,0.0557327,-0.032692
329,1,-0.00801086,0.00110626,0.032196,0.0550461,-0.121689
329,2,-0.00408173,0.00102997,0.0423431,0.0559998,-0.0936508
329,3,-0.00198364,0.00385284,0.0379944,0.0569153,-0.0273895
329,4,0.00164032,7.63E-05,0.0395584,0.052948,0.0160599
330,0,0.00278473,0.00335693,0.0391388,0.0551224,0.0618362
330,1,0.00923157,0.00595093,0.0429916,0.0532913,0.0857544
330,2,0.00801086,0.00469208,0.0488663,0.0572586,0.0762939
330,3,0.00881195,0.00415802,0.0473785,0.0541687,0.0635147
330,4,0.00881195,0.00354767,0.0461578,0.0553894,0.0654221
331,0,0.00782013,0.00110626,0.044899,0.052681,0.0708008
331,1,0.0056839,0.000267029,0.0476837,0.0500488,0.074501
331,2,0.0115967,0.00305176,0.0495148,0.051384,0.0795364
331,3,0.0123215,0.00411987,0.0522614,0.0525665,0.0778961
331,4,0.00473022,0.00473022,0.0498581,0.0508118,0.07164
332,0,0.00209808,-0.0018692,0.0508118,0.0516891,0.067482
332,1,0.00648499,-0.00476837,0.0521851,0.0549698,0.0632095
332,2,0.0100708,-0.00286102,0.0518417,0.0534821,0.0742722
332,3,0.010376,0.000457764,0.0477219,0.0511932,0.0710678
332,4,0.00602722,0.000114441,0.045929,0.0507736,0.0621796
333,0,0.00751495,0.00038147,0.0450134,0.0511169,0.0637817
333,1,0.00686646,0.00156403,0.0462341,0.0513458,0.0615311
333,2,0.00110626,0.000572205,0.0421524,0.050621,0.0630569
333,3,-0.00202179,0.00274658,0.045166,0.0547409,0.0681686
333,4,-0.00915527,0.00232697,0.0449371,0.0549698,0.0595093
334,0,-0.011673,0.00175476,0.0466919,0.0553894,0.0429535
334,1,-0.0100708,0.00450134,0.0535965,0.0535965,0.0114441
334,2,-0.0102615,0.00358582,0.0481415,0.0549316,0.0133896
334,3,-0.0102997,0.00759125,0.0514603,0.06073,0.0374603
334,4,-0.0102997,0.00778198,0.0487518,0.0551605,0.017395
335,0,-0.0129318,0.00713348,0.04673,0.0527191,-0.00297546
335,1,-0.00770569,0.00766754,0.0437546,0.0494003,0.00576019
335,2,-0.00415802,0.00865936,0.0382996,0.0488663,0.0549698
335,3,0.00255585,0.0109863,0.0423813,0.0502777,0.130997
335,4,0.000534058,0.0111771,0.0431061,0.050621,0.18425
336,0,-0.000305176,0.0106812,0.0452042,0.0518417,0.15461
336,1,0.00793457,0.00980377,0.0520325,0.0526047,0.0444031
336,2,0.0056839,0.00858307,0.0477219,0.052948,-0.0387955
336,3,0.00816345,0.00782013,0.0477982,0.0579453,-0.0145721
336,4,0.0112534,0.00679016,0.0471497,0.0592804,-0.0240707
337,0,0.0169373,0.00465393,0.0440979,0.0568771,-0.019989
337,1,0.0121307,0.000114441,0.0461578,0.0542068,0.0146103
337,2,0.00640869,-0.00209808,0.0461197,0.051651,0.0444794
337,3,0.00518799,0.000686646,0.0453568,0.0511932,0.078125
337,4,0.00370026,-0.000953674,0.0455856,0.0531006,0.09758
338,0,0.00602722,-0.00507355,0.0452423,0.0549316,0.112495
338,1,0.00640869,-0.00541687,0.0382996,0.0525665,0.129471
338,2,0.00415802,-0.0082016,0.0347137,0.0538254,0.114403
338,3,0.00358582,-0.00602722,0.0343704,0.0492859,0.0836182
338,4,0.00492096,-0.0105286,0.0405502,0.0523758,0.0928116
339,0,-0.000724792,-0.0125122,0.0446701,0.0484848,0.0874329
339,1,-0.0025177,-0.0148773,0.0444412,0.0525665,0.0743866
339,2,-0.000228882,-0.010643,0.044632,0.0577164,0.0704956
339,3,-0.00514984,-0.00968933,0.0458145,0.0576019,0.0638199
339,4,-0.0062561,-0.0109863,0.048027,0.0553131,0.0411987
340,0,-0.00694275,-0.0130081,0.0572586,0.0562668,0.0863647
340,1,-0.00499725,-0.0131989,0.0576019,0.0574875,0.100594
340,2,-0.0038147,-0.0116348,0.0579834,0.0572205,0.0423431
340,3,-0.000991821,-0.0130844,0.0536346,0.0528336,-0.00854492
340,4,0.0012207,-0.00911713,0.0528336,0.0542831,0.0241089
341,0,0.0056076,-0.00907898,0.0532913,0.0565338,0.0633621
341,1,0.00663757,-0.00736237,0.0510025,0.0551605,0.0715637
341,2,0.00804901,-0.00659943,0.0481415,0.0553513,0.00602722
341,3,0.011673,-0.00461578,0.0465012,0.0534439,-0.0353622
341,4,0.0159454,-0.00511169,0.0464249,0.0575256,-0.0489044
342,0,0.00907898,-0.00118256,0.0465012,0.052948,-0.0435638
342,1,-0.00434875,-0.000610352,0.0428009,0.0522232,0.0174713
342,2,-0.00823975,0.00156403,0.0415802,0.0514984,0.0707245
342,3,-0.00591278,0.00492096,0.0404739,0.0506973,0.125122
342,4,-0.00114441,0.0030899,0.0405121,0.0470352,0.173836
343,0,0.000991821,0.00450134,0.0438309,0.0518036,0.158195
343,1,0.00591278,0.00419617,0.0438309,0.0483322,0.0751877
343,2,0.00156403,0.00583649,0.0489426,0.0501251,-0.0501633
343,3,-0.00102997,0.0062561,0.0503922,0.0544739,-0.00423431
343,4,-0.00232697,0.0104523,0.0488281,0.0543976,0.056572
344,0,-0.00339508,0.010376,0.0472641,0.0569916,0.071373
344,1,-0.00488281,0.00869751,0.0422668,0.0539017,0.0998688
344,2,-0.00236511,0.00556946,0.0421143,0.0562286,0.101395
344,3,-0.0190353,0.00671387,0.0409698,0.0553131,0.107651
344,4,-0.0315857,0.00713348,0.0349045,0.0526428,0.0988007
345,0,-0.0351715,0.00602722,0.0337601,0.0530624,0.0932312
345,1,-0.0294495,0.00259399,0.0375366,0.0528717,0.0738144
345,2,-0.02388,0.00320435,0.0373459,0.0524902,0.062561
345,3,-0.0133896,0.00415802,0.0379562,0.0521088,0.0656128
345,4,-0.00659943,0.00156403,0.0434875,0.0553894,0.0574875
346,0,-0.00499725,0.000534058,0.0466156,0.0508881,0.0506592
346,1,-0.00621796,0.00247955,0.0452423,0.050087,0.0426483
346,2,-0.0115585,-0.000267029,0.044899,0.0504684,0.0337982
346,3,-0.00175476,-0.000419617,0.0465775,0.0567627,0.0511169
346,4,0.00778198,-0.000457764,0.0492859,0.0557709,0.0580978
347,0,0.0103378,-0.00648499,0.054245,0.0565338,0.0667572
347,1,0.0141144,-0.00709534,0.056076,0.0575256,0.0393677
347,2,0.0227356,-0.00354767,0.0546265,0.0530624,0.0192642
347,3,0.0233459,-0.00289917,0.0524902,0.0498581,0.0038147
347,4,0.0198364,-0.00495911,0.0494385,0.0509262,0.0150299
348,0,0.0266266,-0.00537872,0.0475311,0.0474548,-0.0012207
348,1,0.0281906,-0.00400543,0.0509262,0.0496674,-0.0500488
348,2,0.0253296,-0.00312805,0.0519562,0.052681,-0.033989
348,3,0.0242996,0,0.0515366,0.055542,0.0302887
348,4,0.0250626,0.00267029,0.0522232,0.0598907,0.0564194
349,0,0.0150299,0.000343323,0.0520706,0.0568771,0.0807953
349,1,0.00614166,-0.000801086,0.0496674,0.0523376,0.0926971
349,2,0.00427246,0.000343323,0.0471497,0.0513458,0.0817108
349,3,-0.000457764,0.00148773,0.0457382,0.0550842,0.0695801
349,4,-0.00434875,0.000495911,0.0432205,0.055809,0.0557327
350,0,-0.00350952,0.00305176,0.0428009,0.0528717,0.0702286
350,1,-0.00301361,0.00198364,0.0428009,0.0577545,0.118065
350,2,-0.00495911,0.00114441,0.0435638,0.0564957,0.125046
350,3,-0.00465393,0.0019455,0.0410843,0.0546265,0.139389
350,4,-0.00904083,0.00511169,0.0374985,0.051918,0.124245
351,0,-0.0101852,0.00419617,0.0349426,0.0508881,0.0873566
351,1,-0.0082016,0.00255585,0.0370026,0.051651,0.0598907
351,2,-0.0043869,0.000991821,0.0393677,0.0547409,0.0526428
351,3,-0.00106812,0.0018692,0.0415421,0.05867,0.0141144
351,4,-0.0031662,0.00293732,0.045166,0.0589371,-0.0490189
352,0,-0.00598907,0.00904083,0.0436401,0.0577545,0.0365448
352,1,-0.00240326,0.0148392,0.0442505,0.0561523,0.0553894
352,2,0.000114441,0.00858307,0.0435638,0.0534821,0.0444794
352,3,0.00137329,0.00217438,0.0463486,0.0525665,0.0325394
352,4,-0.00808716,0.000114441,0.0498199,0.0490952,0.0520325
353,0,-0.0128937,-0.000572205,0.0505066,0.0534439,0.0940323
353,1,-0.00988007,3.81E-05,0.0524139,0.0526047,0.117302
353,2,-0.00705719,0.00282288,0.0514221,0.047493,0.115433
353,3,-0.000419617,0.00160217,0.051651,0.0515747,0.0926971
353,4,-0.000457764,-0.000915527,0.045433,0.0505829,0.0659943
354,0,-0.000610352,-0.00762939,0.0464249,0.0502396,0.034256
354,1,-0.00148773,-0.00934601,0.0470734,0.0471497,-0.00747681
354,2,-0.00450134,-0.010643,0.0453568,0.0497055,0.0263977
354,3,-0.00694275,-0.00392914,0.0470352,0.0504684,0.0300217
354,4,-0.00598907,-0.00499725,0.0457382,0.0531006,0.00320435
355,0,-0.00354767,-0.00366211,0.0485229,0.0511551,0.00946045
355,1,-0.00087738,-0.00087738,0.0461578,0.0565338,0.0822449
355,2,0.00297546,-0.000457764,0.0446701,0.056076,0.0982666
355,3,0.00869751,-0.0043869,0.0423431,0.0563431,0.0540924
355,4,0.0127411,-0.00286102,0.0419998,0.0563049,0.0110245
356,0,0.00999451,-0.0030899,0.0444031,0.0533295,-0.0181961
356,1,0.00587463,-0.00537872,0.041275,0.0537872,0.0338364
356,2,-0.00213623,-0.00457764,0.0435638,0.0566483,0.0731659
356,3,-0.00511169,-0.00602722,0.0444412,0.0554276,0.0766373
356,4,-0.00400543,-0.00522614,0.0431061,0.0563431,0.0850296
357,0,-0.00259399,-0.00553131,0.0437927,0.0559998,0.0959778
357,1,0.000991821,-0.00442505,0.0497437,0.0560379,0.0934219
357,2,0.00286102,-0.00110626,0.0510025,0.0582123,0.0867081
357,3,0.00247955,-0.000915527,0.0533676,0.0576401,0.0849152
357,4,0.00434875,0.00293732,0.0559235,0.0579834,0.0797653
358,0,0.00423431,0.00179291,0.057373,0.0573349,0.0622559
358,1,0.00331879,-0.00255585,0.050354,0.0564194,0.0532532
358,2,0.00549316,7.63E-05,0.0452042,0.049324,0.073204
358,3,0.010376,0.00110626,0.0452805,0.0512314,0.0873566
358,4,0.00453949,0.00488281,0.0453949,0.0553131,0.0902939
359,0,-0.00328064,0.00797272,0.0453568,0.0522614,0.0836182
359,1,-0.00679016,0.0119781,0.0461578,0.0531387,0.0405884
359,2,-0.00648499,0.0186539,0.0440979,0.0525665,-0.0505829
359,3,-0.00480652,0.0243378,0.0457382,0.0516891,-0.0463486
359,4,-0.00198364,0.0234222,0.0499344,0.0577545,0.0196075
360,0,0.0044632,0.0201797,0.0491333,0.0538635,0.0341415
360,1,0.00232697,0.0169373,0.0442123,0.0522232,0.0463867
360,2,-0.00339508,0.0157166,0.0463104,0.051651,0.043869
360,3,-0.00434875,0.0190735,0.0444412,0.0471497,0.046196
360,4,0.00228882,0.0223541,0.0453186,0.0460434,0.0518799
361,0,0.00492096,0.0218582,0.0405884,0.04776,0.0571442
361,1,-0.000534058,0.0131226,0.0387955,0.0479126,0.0665665
361,2,0.00205994,0.0144196,0.0365448,0.050087,0.0805664
361,3,0.00358582,0.0163651,0.0364304,0.0535583,0.0857544
361,4,0.00110626,0.0198364,0.0391006,0.0533295,0.085907
362,0,-0.00144958,0.0094986,0.0431061,0.0520325,0.076561
362,1,-0.0134277,-0.000572205,0.0419617,0.0542831,0.0589371
362,2,-0.0202942,-0.00526428,0.042305,0.0528336,0.0462341
362,3,-0.029068,-0.0177002,0.0431824,0.0538635,0.0534439
362,4,-0.0330353,-0.0221634,0.0381851,0.0537491,0.0626373
363,0,-0.0344467,-0.0211334,0.0403595,0.0506592,0.0664902
363,1,-0.0354385,-0.02491,0.0396729,0.0550842,0.069809
363,2,-0.0298309,-0.0302887,0.0386429,0.055275,0.0645065
363,3,-0.0114059,-0.0305557,0.0362778,0.0576401,0.05867
363,4,0.00602722,-0.0306702,0.0373077,0.0569534,0.0529861
364,0,0.0136948,-0.0254059,0.0363541,0.0524521,0.0585938
364,1,0.0198746,-0.022316,0.0401306,0.0572968,0.0627136
364,2,0.0272369,-0.0189209,0.0424576,0.0566864,0.0559616
364,3,0.0312805,-0.0200272,0.0460052,0.0576019,0.0418854
364,4,0.0298691,-0.0222778,0.0458527,0.0519562,0.0376892
365,0,0.0330734,-0.0159454,0.0482178,0.0559616,0.050087
365,1,0.0380325,-0.0161362,0.0528336,0.0528336,0.0483322
365,2,0.0422668,-0.00682831,0.0524521,0.0548935,0.067215
365,3,0.0310898,-0.00400543,0.0490189,0.0510406,0.0762939
365,4,0.0241852,-0.00591278,0.051918,0.0537872,0.0894928
366,0,0.0208282,-0.00331879,0.0556946,0.0527573,0.0870132
366,1,0.0183868,-0.00537872,0.0570297,0.0535202,0.0513458
366,2,0.0177002,-0.00450134,0.0558853,0.0534439,0.0146866
366,3,0.018158,0.00202179,0.0530243,0.0518036,-0.0256729
366,4,0.0151062,0.00324249,0.0513077,0.0482941,0.00892639
367,0,0.0157928,0.00579834,0.0497055,0.0485611,0.0570297
367,1,0.0101471,0.00587463,0.0577927,0.0513458,0.0979614
367,2,0.00686646,0.0056076,0.0648499,0.0577545,0.11776
367,3,-0.00385284,0.00816345,0.0662231,0.0639343,0.12043
367,4,-0.00762939,0.00961304,0.0556946,0.0580215,0.0822449
368,0,-0.0123596,0.0116348,0.0543976,0.0550842,0.0377655
368,1,-0.017395,0.0152588,0.0444412,0.0542068,-0.0146103
368,2,-0.0231934,0.0150681,0.0459671,0.0554276,-0.0240326
368,3,-0.026474,0.0209427,0.0446701,0.0551987,0.0214386
368,4,-0.0196838,0.0219727,0.0404739,0.055542,0.00217438
369,0,-0.0196838,0.0144958,0.0389862,0.054245,-0.034523
369,1,-0.0275421,0.00564575,0.0374985,0.0518036,-0.038681
369,2,-0.0321579,0.00629425,0.0379181,0.0538635,0.0387192
369,3,-0.0324631,0.00888824,0.0452805,0.0529099,0.0947571
369,4,-0.0222397,0.00255585,0.0439453,0.0535583,0.083847
370,0,-0.0119781,-0.000305176,0.0390625,0.0495148,0.0891876
370,1,-0.00221252,-0.0043869,0.0379181,0.0509262,0.157013
370,2,0.0025177,-0.00499725,0.0373077,0.0528336,0.134125
370,3,-0.00106812,-0.00137329,0.0369263,0.056076,0.136986
370,4,-0.00976563,-0.00389099,0.0345993,0.0511551,0.139275
371,0,-0.0108337,-0.00427246,0.0311279,0.0486755,0.138855
371,1,-0.0140762,-0.00263214,0.0382614,0.0502777,0.158882
371,2,-0.0139236,0.00114441,0.0460434,0.0524139,0.165443
371,3,-0.0114059,0.00141144,0.0504303,0.0538635,0.103378
371,4,-0.0123978,0.00331879,0.0492859,0.0544357,-0.0637054
372,0,-0.00900269,0.00240326,0.0509644,0.0506592,-0.116119
372,1,0.00427246,0.00328064,0.050621,0.0525665,-0.079689
372,2,0.018959,0.000839233,0.0459671,0.051651,-0.0740814
372,3,0.0274277,0.000495911,0.0468063,0.0526428,-0.0413895
372,4,0.0277328,0.00179291,0.0427628,0.0495529,0.0390244
373,0,0.0252151,0.0019455,0.0424194,0.0511169,0.105438
373,1,0.0224304,0.000114441,0.0423813,0.0495911,0.106773
373,2,0.0213242,0.00144958,0.0422287,0.0506592,0.101395
373,3,0.017128,0.00110626,0.0458145,0.0563049,0.105286
373,4,0.0174332,0.000953674,0.0442123,0.0550461,0.0893021
374,0,0.013504,0.00492096,0.0460052,0.0539398,0.0857162
374,1,0.0147629,0.00190735,0.0486755,0.0597,0.0889969
374,2,0.0106049,0.000991821,0.0437546,0.0565338,0.0938416
374,3,0.0107956,0.00434875,0.0399017,0.0564575,0.0907898
374,4,0.0119019,0.000724792,0.0400543,0.0524139,0.0786591
375,0,0.00427246,-0.00240326,0.0404739,0.0535583,0.0798416
375,1,-0.00205994,-0.00225067,0.0475311,0.0578308,0.0775146
375,2,-0.00450134,-0.000648499,0.0548935,0.0582886,0.0588989
375,3,-0.00858307,0.00278473,0.0529861,0.0548553,0.0268936
375,4,-0.0128937,0.000915527,0.0571823,0.0547791,-0.0321198
376,0,-0.0131989,-0.000228882,0.0553131,0.0562668,-0.00785828
376,1,-0.0123978,7.63E-05,0.0535583,0.0566864,0.00961304
376,2,-0.0173187,-0.000839233,0.0563812,0.0600815,0.0230789
376,3,-0.0179672,-0.0018692,0.0554657,0.0587463,0.044899
376,4,-0.0145721,-0.000686646,0.0546646,0.0554657,0.0511169
377,0,-0.0179291,-0.00133514,0.0506592,0.0540924,0.0527191
377,1,-0.0131226,-0.00205994,0.0470734,0.0518799,0.0559616
377,2,-0.0150681,-0.000419617,0.049324,0.0514984,0.0685501
377,3,-0.0172806,-0.00087738,0.0468445,0.0549698,0.0824738
377,4,-0.0193405,-0.000343323,0.0463486,0.0547409,0.0951385
378,0,-0.0175476,0.000686646,0.0466156,0.0549316,0.11364
378,1,-0.0111389,-0.00156403,0.0466537,0.0531387,0.102577
378,2,-0.000801086,-0.00171661,0.046463,0.0490189,0.0454712
378,3,0.0109863,0.00148773,0.0439835,0.0484467,0.0265121
378,4,0.0255585,0.00247955,0.0417328,0.051651,-0.0331116
379,0,0.0376129,-0.00106812,0.0334549,0.0500488,-0.0311661
379,1,0.0481796,-0.00263214,0.031929,0.0502396,0.0352859
379,2,0.0568008,-0.00240326,0.0314331,0.0514221,0.025177
379,3,0.0550079,0.00175476,0.0342178,0.0495148,0.0341034
379,4,0.0484848,0.00419617,0.0347137,0.0541306,0.038147
380,0,0.0339127,0.00141144,0.041275,0.0537872,0.0452805
380,1,0.0121307,-0.00110626,0.0431061,0.0555801,0.0650406
380,2,-0.00644684,-0.00137329,0.0465775,0.0562286,0.0839233
380,3,-0.0211716,-0.00125885,0.0415802,0.0566101,0.0958252
380,4,-0.0346756,-0.000495911,0.0411224,0.052681,0.0971603
381,0,-0.039711,0.000648499,0.0430298,0.0495529,0.0779343
381,1,-0.0435638,-0.00209808,0.0402451,0.0473404,0.069046
381,2,-0.0429153,-0.000343323,0.042572,0.0510025,0.0645828
381,3,-0.0448227,-0.00137329,0.0432968,0.0534821,0.0573349
381,4,-0.050087,-0.00114441,0.0455475,0.0539398,0.0613022
382,0,-0.0587463,0.00362396,0.0535583,0.0575638,0.0956345
382,1,-0.0748444,0.00240326,0.0587082,0.0584412,0.113983
382,2,-0.0832748,0.0025177,0.0534821,0.0528336,0.0835419
382,3,-0.0395203,0.00225067,0.0540924,0.0502777,0.0503922
382,4,0.0338364,0.00270844,0.0550079,0.0516891,0.0575256
383,0,0.084343,0.00350952,0.0469208,0.0500488,0.0647354
383,1,0.103912,0.00110626,0.0456238,0.0500488,0.0707245
383,2,0.109558,0.00114441,0.0450897,0.0535965,0.0804138
383,3,0.093689,0.00293732,0.045433,0.0524521,0.0865936
383,4,0.0734329,0.00408173,0.0423431,0.0557327,0.0713348
384,0,0.0486755,0.00488281,0.0450134,0.0552368,0.043602
384,1,0.0227737,0.00202179,0.0419235,0.0522614,-0.00354767
384,2,0.00312805,0.00286102,0.042305,0.0524139,-0.0261688
384,3,-0.0105286,-0.000305176,0.052681,0.055809,-0.0270462
384,4,-0.0281906,-0.00118256,0.0489426,0.058136,0.0115967
385,0,-0.0444794,-0.00473022,0.050621,0.054512,0.0359726
385,1,-0.0514984,-0.00217438,0.0494385,0.0566864,0.0513077
385,2,-0.0537491,-0.00484467,0.0496674,0.0534821,0.0556946
385,3,-0.0465012,-0.0135803,0.0475693,0.0527573,0.0594711
385,4,-0.0409698,-0.0157928,0.0458908,0.0506973,0.0654221
386,0,-0.0320816,-0.0148392,0.0410461,0.0542068,0.0666046
386,1,-0.0234604,0.0152969,0.0424957,0.0535965,0.0706482
386,2,-0.0126266,0.0304031,0.0424576,0.0496674,0.074501
386,3,7.63E-05,0.0208282,0.0480652,0.0556946,0.106697
386,4,0.00549316,0.0196075,0.0468445,0.0553513,0.14679
387,0,0.0110626,0.00385284,0.0450516,0.0504303,0.145111
387,1,0.00907898,0.00179291,0.0461197,0.0498962,0.117073
387,2,0.0163651,0.00480652,0.0477982,0.0521469,0.0637817
387,3,0.0193787,-0.00263214,0.0457764,0.0512695,-0.0189972
387,4,0.0132751,-0.01297,0.0476837,0.0541687,-0.0364685
388,0,0.0150299,-0.0189972,0.0495911,0.0569153,-0.0869751
388,1,0.0148392,-0.0194168,0.0507736,0.0549316,-0.0760269
388,2,0.0136185,-0.00854492,0.0500488,0.0556946,0.00617981
388,3,0.0094223,-0.00801086,0.0473785,0.0562286,0.0633621
388,4,0.00873566,-0.00686646,0.0442123,0.0598526,0.0873184
389,0,0.00415802,0.0102615,0.0428391,0.0590515,0.103722
389,1,0.000114441,0.0056839,0.0413513,0.0534821,0.107079
389,2,-0.00102997,0.00267029,0.0419617,0.0555038,0.104561
389,3,0.000457764,-0.0031662,0.0422287,0.0524139,0.103264
389,4,0.00110626,-0.0215912,0.0429153,0.0525284,0.0985336
390,0,-0.000228882,-0.0314331,0.0384903,0.0560379,0.0914001
390,1,-0.00244141,-0.0122452,0.0380707,0.0480652,0.0887299
390,2,-0.0025177,-0.0025177,0.0407791,0.049324,0.0891113
390,3,-0.0030899,-0.000839233,0.0438309,0.0543213,0.0408173
390,4,-0.00301361,0.0056076,0.0456238,0.0525665,0.0191498
391,0,-0.00110626,0.0275421,0.0441742,0.0507736,0.0460815
391,1,-0.00274658,0.0235367,0.0435257,0.0535965,0.0563431
391,2,-0.0025177,0.00343323,0.0452423,0.058403,0.0591278
391,3,-0.000495911,-0.00995636,0.044899,0.0539017,0.0162125
391,4,0.000953674,-0.00675201,0.0476074,0.0505066,0.0383759
392,0,0.00247955,-0.00152588,0.0465393,0.0505447,0.0582123
392,1,0.00293732,0.0018692,0.0453186,0.0521851,0.0759125
392,2,0.00179291,0.0206375,0.0479889,0.0539017,0.0325394
392,3,0.00469208,0.0146103,0.0490952,0.0600052,0.0227737
392,4,0.00377655,0.0239944,0.0504303,0.0691605,0.00247955
393,0,0.00480652,0.02491,0.0540924,0.079689,0.0323105
393,1,0.00114441,0.00911713,0.0540543,0.0654602,0.0575256
393,2,-7.63E-05,0.00263214,0.0463867,0.018692,0.0995636
393,3,0.00259399,0.00526428,0.0357056,0.00602722,0.0955582
393,4,3.81E-05,0.000762939,0.041008,0.00587463,0.0741196
394,0,0.00209808,-0.0103378,0.0419235,0.0330353,0.0363922
394,1,0.00255585,-0.0181198,0.0559235,0.0574112,0.0302887
394,2,-0.00408173,-0.0179672,0.0648499,0.0646591,0.0385666
394,3,-0.00156403,-0.0104904,0.0595093,0.0695419,0.0503159
394,4,0.000724792,0.0101852,0.026741,0.0664139,0.0580597
395,0,-0.00102997,0.0178909,0.0200272,0.0734711,0.0646591
395,1,-0.00419617,0.00705719,0.0540924,0.0798416,0.0658035
395,2,-0.000648499,0.000457764,0.0759888,0.0751114,0.0720596
395,3,0.00312805,-0.0502396,0.0732422,0.0641251,0.0748825
395,4,0.00198364,-0.0180435,0.0419998,0.0526047,0.0752258
396,0,0.00335693,-0.0108719,0.0149918,0.0499725,0.0791931
396,1,0.00312805,-0.0498581,0.0256348,0.0541306,0.0716019
396,2,0.00141144,-0.0379181,0.0238037,0.0517273,0.0594711
396,3,-0.0025177,-0.000343323,0.0127411,0.0481033,0.049057
396,4,-0.00572205,0.0484085,0.0436401,0.0457382,0.0385284
397,0,-0.00343323,0.0403976,0.0653076,0.0419235,0.038414
397,1,-0.00408173,0.0152588,0.0621796,0.054512,0.0396729
397,2,-0.00286102,-0.0192642,0.0477982,0.0531769,0.039444
397,3,0.00209808,-0.0288391,0.029068,0.0510406,0.0492859
397,4,0.000228882,0.000762939,0.0499725,0.0787354,0.0542831
398,0,-0.000419617,0.0358582,0.0749588,0.104523,0.0529861
398,1,-3.81E-05,-0.0117493,0.0705719,0.0928497,0.050354
398,2,0.000839233,0.0110245,0.0325775,0.0537491,0.0488281
398,3,0.000152588,0.0656509,0.0502014,-0.0153732,0.0525284
398,4,0.000839233,0.0782394,0.033493,-0.0502777,0.062027
399,0,-0.00171661,0.0372696,0.0666046,0.0259399,0.0578308
399,1,-0.000610352,-0.0149918,0.0572205,0.0933456,0.0498962
399,2,-0.00202179,-0.069809,0.08564,0.10479,0.0462341
399,3,0.00221252,-0.0850677,0.116005,0.0721359,0.0597382
399,4,0.0025177,-0.0688171,0.0273895,0.0630188,0.0690842
400,0,0.00411987,-0.0424576,0.001297,-0.00171661,0.031929
400,1,0.00534058,-0.0197601,0.0649643,0.0113297,0.0288391
400,2,0.000648499,-0.0050354,0.107918,0.0449371,0.0465775
400,3,-0.00205994,0.0154877,0.0907135,0.0144958,0.0629044
400,4,-0.00419617,0.0772858,0.0308228,0.075798,0.068779
401,0,-0.000114441,0.0920486,0.0300217,0.129929,0.0842667
401,1,-0.00240326,0.094223,0.00682831,0.103073,0.116043
401,2,-0.000495911,0.046463,-0.0407791,0.0652313,0.104332
401,3,-0.000152588,-0.0201416,-0.0617981,0.0287247,0.0669479
401,4,-0.00110626,-0.0286484,-0.0990295,0.0495529,0.0536346
402,0,-0.00396729,0.001297,-0.0989151,0.0478745,0.0359344
402,1,7.63E-05,-0.00648499,-0.0458527,0.0421524,0.033226
402,2,-0.000305176,-0.0323868,0.0415421,0.0467682,0.0555801
402,3,0.00511169,-0.0167465,0.0741196,0.0488663,0.0849915
402,4,0.00358582,-0.00713348,0.119171,0.0503922,0.0975037
403,0,0.00736237,0.00793457,0.120049,0.0505829,0.0902176
403,1,0.00686646,-0.0118256,0.124168,0.0486374,0.0977707
403,2,0.00488281,-0.0209808,0.111732,0.0536346,0.119209
403,3,0.00270844,-0.00881195,0.103531,0.0622177,0.0934982
403,4,0.000572205,-0.000724792,0.105629,0.0728607,0.00614166
404,0,-0.00377655,-0.00904083,0.109978,0.0656509,-0.0263596
404,1,-0.00507355,-0.0174332,0.106697,0.055809,-0.191231
404,2,-0.00358582,0.00858307,0.106316,0.0577164,-0.17704
404,3,-0.00282288,0.0153351,0.0941849,0.0471497,-0.0167847
404,4,-0.0062561,-0.00957489,0.0854492,0.0440979,0.0730133
405,0,-3.81E-05,-0.00286102,0.0586319,0.00385284,0.0921631
405,1,0.000267029,0.0495148,0.00804901,0.0069809,0.0777435
405,2,-3.81E-05,0.0705338,0.00415802,0.0519943,0.15316
405,3,0.00236511,0.0305939,0.0444412,0.0828552,0.201569
405,4,-0.00205994,-0.0333023,0.0790024,0.0865936,0.180855
406,0,-0.00419617,-0.0928879,0.0484467,0.0791168,0.055809
406,1,0.000190735,-0.0836945,0.00919342,0.066452,-0.0927353
406,2,0.00534058,-0.0635529,-0.0136566,0.0592041,-0.124321
406,3,0.000724792,-0.0420761,0.0218201,0.071907,-0.0138092
406,4,0.00209808,-0.0504684,0.0185394,0.0640869,0.105171
407,0,0.00423431,-0.0439453,-0.0127411,0.0569153,0.14267
407,1,0.00232697,-0.0242233,-0.00362396,0.050354,0.146637
407,2,-0.00102997,0.00514984,0.00431061,0.0484085,0.204735
407,3,-0.00350952,0.0339508,0.0160599,0.0467682,0.147667
407,4,0.00267029,0.0175858,0.0279236,0.0498199,0.0935364
408,0,0.00484467,0.0344086,0.0375366,0.0534058,0.124893
408,1,-0.000762939,0.0250244,0.042572,0.0548553,0.103073
408,2,-0.00328064,0.0379181,0.050621,0.0543976,0.0456619
408,3,-0.00461578,0.0600433,0.053215,0.0478745,0.013237
408,4,-0.00278473,0.0496292,0.0571823,0.0457001,0.0245667
409,0,-0.00175476,0.0196075,0.0583267,0.0542831,0.00530243
409,1,-0.00366211,0.0137711,0.0590134,0.0517273,0.0349045
409,2,-0.000572205,0.0257111,0.0559998,0.0458908,0.0871658
409,3,-3.81E-05,0.0364304,0.0556183,0.0495911,0.0960541
409,4,0.00244141,0.00244141,0.0584412,0.0466919,0.0426483
410,0,0.00587463,-0.0175476,0.0629044,0.0500107,0.0548172
410,1,-0.00110626,0.00259399,0.0635147,0.0522614,0.0815582
410,2,-0.00400543,0.0388336,0.0682449,0.0572205,0.0292206
410,3,-0.00282288,0.0549316,0.0618744,0.0510788,-0.0380707
410,4,0.000534058,0.0435257,0.0629044,0.0518036,-0.0497437
